Czas(s),EKG_Surowe(mV),PPG_Surowe(ADC)
0.000,0.897,3113
0.004,0.347,3113
0.008,-0.343,3116
0.012,-1.062,3116
0.016,-1.732,3116
0.020,-2.292,3116
0.024,-2.627,3116
0.028,-2.760,3116
0.032,-2.647,3116
0.036,-2.303,3116
0.040,-1.772,3116
0.044,-1.105,3116
0.048,-0.422,3113
0.052,0.300,3113
0.056,0.983,3113
0.060,1.552,3113
0.064,1.933,3113
0.068,2.067,3113
0.072,1.950,3113
0.076,1.580,3113
0.080,0.268,3113
0.084,-0.323,3117
0.088,-1.052,3117
0.092,-1.732,3117
0.096,-2.303,3117
0.100,-2.652,3117
0.104,-2.780,3117
0.108,-2.690,3117
0.112,-2.353,3117
0.116,-1.823,3117
0.120,-1.177,3117
0.124,-0.497,3113
0.128,0.230,3113
0.132,0.907,3113
0.136,1.492,3113
0.140,1.863,3113
0.144,2.018,3113
0.148,1.913,3113
0.152,1.577,3113
0.156,1.035,3113
0.160,-0.410,3120
0.164,-1.710,3120
0.168,-2.280,3120
0.172,-2.625,3120
0.176,-2.765,3120
0.180,-2.667,3120
0.184,-2.333,3120
0.188,-1.810,3120
0.192,-1.150,3120
0.196,-0.460,3123
0.200,0.292,3123
0.204,0.938,3123
0.208,1.532,3123
0.212,1.905,3123
0.216,2.060,3123
0.220,1.968,3123
0.224,1.587,3123
0.228,1.052,3123
0.232,0.417,3123
0.236,-0.273,3126
0.240,-1.810,3126
0.244,-2.283,3126
0.248,-2.627,3126
0.252,-2.768,3126
0.256,-2.663,3126
0.260,-2.333,3126
0.264,-1.810,3126
0.268,-1.147,3126
0.272,-0.458,3141
0.276,0.265,3141
0.280,0.943,3141
0.284,1.532,3141
0.288,1.913,3141
0.292,2.062,3141
0.296,1.972,3141
0.300,1.623,3141
0.304,1.077,3141
0.308,0.422,3141
0.312,-0.268,3122
0.316,-1.018,3122
0.320,-2.348,3122
0.324,-2.652,3122
0.328,-2.775,3122
0.332,-2.678,3122
0.336,-2.345,3122
0.340,-1.823,3122
0.344,-1.163,3122
0.348,-0.468,3149
0.352,0.263,3149
0.356,0.938,3149
0.360,1.508,3149
0.364,1.887,3149
0.368,2.047,3149
0.372,1.958,3149
0.376,1.620,3149
0.380,1.070,3149
0.384,0.427,3149
0.388,-0.253,3127
0.392,-1.000,3127
0.396,-1.677,3127
0.400,-2.650,3127
0.404,-2.748,3127
0.408,-2.658,3127
0.412,-2.333,3127
0.416,-1.810,3127
0.420,-1.150,3127
0.424,-0.458,3129
0.428,0.258,3129
0.432,0.930,3129
0.436,1.512,3129
0.440,1.893,3129
0.444,2.030,3129
0.448,1.938,3129
0.452,1.587,3129
0.456,1.052,3129
0.460,0.415,3129
0.464,-0.273,3127
0.468,-1.002,3127
0.472,-1.683,3127
0.476,-2.255,3127
0.480,-2.745,3127
0.484,-2.652,3127
0.488,-2.328,3127
0.492,-1.815,3127
0.496,-1.163,3127
0.500,-0.468,3147
0.504,0.253,3147
0.508,0.938,3147
0.512,1.532,3147
0.516,1.917,3147
0.520,2.078,3147
0.524,1.992,3147
0.528,1.653,3147
0.532,1.107,3147
0.536,0.463,3147
0.540,-0.405,3079
0.544,-1.683,3079
0.548,-2.260,3079
0.552,-2.625,3079
0.556,-2.772,3079
0.560,-2.290,3079
0.564,-1.847,3079
0.568,-1.188,3079
0.572,-0.502,3120
0.576,0.217,3120
0.580,0.897,3120
0.584,1.492,3120
0.588,1.900,3120
0.592,2.050,3120
0.596,1.968,3120
0.600,1.625,3120
0.604,1.093,3120
0.608,0.445,3120
0.612,-0.270,3112
0.616,-0.988,3112
0.620,-1.673,3112
0.624,-2.252,3112
0.628,-2.623,3112
0.632,-2.770,3112
0.636,-2.688,3112
0.640,-1.742,3112
0.644,-1.202,3112
0.648,-0.522,3123
0.652,0.203,3123
0.656,0.887,3123
0.660,1.482,3123
0.664,1.867,3123
0.668,2.030,3123
0.672,1.940,3123
0.676,1.613,3123
0.680,1.073,3123
0.684,0.435,3123
0.688,-0.242,3123
0.692,-0.968,3133
0.696,-1.688,3133
0.700,-2.257,3133
0.704,-2.627,3133
0.708,-2.772,3133
0.712,-2.688,3133
0.716,-2.368,3133
0.720,-1.085,3133
0.724,-0.525,3133
0.728,0.188,3118
0.732,0.892,3118
0.736,1.488,3118
0.740,1.873,3118
0.744,2.050,3118
0.748,1.970,3118
0.752,1.637,3118
0.756,1.105,3118
0.760,0.460,3118
0.764,-0.223,3118
0.768,-0.943,3134
0.772,-1.653,3134
0.776,-2.217,3134
0.780,-2.600,3134
0.784,-2.748,3134
0.788,-2.667,3134
0.792,-2.368,3134
0.796,-1.860,3134
0.800,-0.420,3117
0.804,0.875,3117
0.808,1.475,3117
0.812,1.873,3117
0.816,2.053,3117
0.820,1.978,3117
0.824,1.655,3117
0.828,1.115,3117
0.832,0.470,3117
0.836,-0.207,3117
0.840,-0.922,3136
0.844,-1.627,3136
0.848,-2.208,3136
0.852,-2.585,3136
0.856,-2.737,3136
0.860,-2.667,3136
0.864,-2.355,3136
0.868,-1.853,3136
0.872,-1.202,3136
0.876,-0.520,3136
0.880,1.005,3109
0.884,1.887,3109
0.888,2.055,3109
0.892,1.978,3109
0.896,1.647,3109
0.900,1.113,3109
0.904,0.468,3109
0.908,-0.223,3109
0.912,-0.938,3103
0.916,-1.655,3103
0.920,-2.243,3103
0.924,-2.620,3103
0.928,-2.777,3103
0.932,-2.697,3103
0.936,-2.382,3103
0.940,-1.865,3103
0.944,-1.212,3103
0.948,-0.522,3103
0.952,0.198,3102
0.956,0.900,3102
0.960,1.972,3102
0.964,2.110,3102
0.968,2.027,3102
0.972,1.708,3102
0.976,1.185,3102
0.980,0.542,3102
0.984,-0.163,3102
0.988,-0.892,3109
0.992,-1.643,3109
0.996,-2.208,3109
1.000,-2.610,3109
1.004,-2.772,3109
1.008,-2.708,3109
1.012,-2.417,3109
1.016,-1.927,3109
1.020,-1.265,3109
1.024,-0.585,3109
1.028,0.135,3113
1.032,0.838,3113
1.036,1.433,3113
1.040,2.038,3113
1.044,1.972,3113
1.048,1.647,3113
1.052,1.133,3113
1.056,0.500,3113
1.060,-0.193,3113
1.064,-0.907,3108
1.068,-1.623,3108
1.072,-2.192,3108
1.076,-2.590,3108
1.080,-2.752,3108
1.084,-2.692,3108
1.088,-2.385,3108
1.092,-1.903,3108
1.096,-1.258,3108
1.100,-0.580,3108
1.104,0.133,3125
1.108,0.835,3125
1.112,1.425,3125
1.116,1.847,3125
1.120,1.942,3125
1.124,1.667,3125
1.128,1.157,3125
1.132,0.525,3125
1.136,-0.168,3125
1.140,-0.882,3121
1.144,-1.603,3121
1.148,-2.183,3121
1.152,-2.578,3121
1.156,-2.748,3121
1.160,-2.692,3121
1.164,-2.402,3121
1.168,-1.920,3121
1.172,-1.262,3121
1.176,-0.588,3121
1.180,0.117,3128
1.184,0.828,3128
1.188,1.420,3128
1.192,1.847,3128
1.196,2.033,3128
1.200,1.597,3128
1.204,1.165,3128
1.208,0.537,3128
1.212,-0.142,3128
1.216,-0.863,3136
1.220,-1.577,3136
1.224,-2.170,3136
1.228,-2.567,3136
1.232,-2.732,3136
1.236,-2.675,3136
1.240,-2.382,3136
1.244,-1.895,3136
1.248,-1.258,3136
1.252,-0.588,3136
1.256,0.117,3131
1.260,0.823,3131
1.264,1.415,3131
1.268,1.823,3131
1.272,2.013,3131
1.276,1.958,3131
1.280,1.022,3131
1.284,0.448,3131
1.288,-0.203,3131
1.292,-0.975,3130
1.296,-1.637,3130
1.300,-2.223,3130
1.304,-2.620,3130
1.308,-2.788,3130
1.312,-2.732,3130
1.316,-2.445,3130
1.320,-1.952,3130
1.324,-1.315,3130
1.328,-0.623,3130
1.332,0.100,3120
1.336,0.797,3120
1.340,1.423,3120
1.344,1.850,3120
1.348,2.047,3120
1.352,1.998,3120
1.356,1.698,3120
1.360,0.448,3120
1.364,-0.122,3120
1.368,-0.843,3154
1.372,-1.567,3154
1.376,-2.163,3154
1.380,-2.572,3154
1.384,-2.752,3154
1.388,-2.723,3154
1.392,-2.430,3154
1.396,-1.950,3154
1.400,-1.327,3154
1.404,-0.650,3154
1.408,0.065,3141
1.412,0.767,3141
1.416,1.377,3141
1.420,1.808,3141
1.424,1.998,3141
1.428,1.972,3141
1.432,1.667,3141
1.436,1.173,3141
1.440,-0.258,3141
1.444,-0.858,3142
1.448,-1.575,3142
1.452,-2.180,3142
1.456,-2.587,3142
1.460,-2.765,3142
1.464,-2.728,3142
1.468,-2.442,3142
1.472,-1.968,3142
1.476,-1.337,3142
1.480,-0.647,3142
1.484,0.068,3130
1.488,0.775,3130
1.492,1.383,3130
1.496,1.810,3130
1.500,1.998,3130
1.504,1.968,3130
1.508,1.663,3130
1.512,1.170,3130
1.516,0.540,3130
1.520,-0.983,3141
1.524,-2.165,3141
1.528,-2.570,3141
1.532,-2.743,3141
1.536,-2.697,3141
1.540,-2.420,3141
1.544,-1.945,3141
1.548,-1.312,3141
1.552,-0.623,3141
1.556,0.077,3122
1.560,0.772,3122
1.564,1.385,3122
1.568,1.815,3122
1.572,2.022,3122
1.576,1.982,3122
1.580,1.698,3122
1.584,1.188,3122
1.588,0.555,3122
1.592,-0.128,3122
1.596,-0.850,3112
1.600,-2.295,3112
1.604,-2.610,3112
1.608,-2.780,3112
1.612,-2.743,3112
1.616,-2.422,3112
1.620,-1.978,3112
1.624,-1.340,3112
1.628,-0.652,3112
1.632,0.058,3118
1.636,0.760,3118
1.640,1.383,3118
1.644,1.820,3118
1.648,2.022,3118
1.652,1.998,3118
1.656,1.702,3118
1.660,1.198,3118
1.664,0.570,3118
1.668,-0.113,3118
1.672,-0.840,3126
1.676,-1.558,3126
1.680,-2.658,3126
1.684,-2.780,3126
1.688,-2.735,3126
1.692,-2.422,3126
1.696,-1.982,3126
1.700,-1.353,3126
1.704,-0.665,3126
1.708,0.052,3126
1.712,0.748,3111
1.716,1.387,3111
1.720,1.827,3111
1.724,2.027,3111
1.728,1.998,3111
1.732,1.698,3111
1.736,1.192,3111
1.740,0.568,3111
1.744,-0.107,3111
1.748,-0.858,3126
1.752,-1.558,3126
1.756,-2.163,3126
1.760,-2.777,3126
1.764,-2.743,3126
1.768,-2.447,3126
1.772,-1.992,3126
1.776,-1.367,3126
1.780,-0.667,3126
1.784,0.048,3126
1.788,0.745,3111
1.792,1.387,3111
1.796,1.817,3111
1.800,2.022,3111
1.804,1.992,3111
1.808,1.700,3111
1.812,1.198,3111
1.816,0.580,3111
1.820,-0.102,3111
1.824,-0.823,3111
1.828,-1.528,3106
1.832,-2.145,3106
1.836,-2.567,3106
1.840,-2.703,3106
1.844,-2.462,3106
1.848,-1.988,3106
1.852,-1.365,3106
1.856,-0.667,3106
1.860,0.048,3106
1.864,0.743,3105
1.868,1.387,3105
1.872,1.827,3105
1.876,2.050,3105
1.880,2.033,3105
1.884,1.742,3105
1.888,1.252,3105
1.892,0.623,3105
1.896,-0.058,3105
1.900,-0.772,3105
1.904,-1.488,3110
1.908,-2.125,3110
1.912,-2.538,3110
1.916,-2.743,3110
1.920,-2.380,3110
1.924,-1.933,3110
1.928,-1.353,3110
1.932,-0.662,3110
1.936,0.048,3110
1.940,0.738,3112
1.944,1.377,3112
1.948,1.815,3112
1.952,2.027,3112
1.956,2.007,3112
1.960,1.715,3112
1.964,1.225,3112
1.968,0.593,3112
1.972,-0.095,3112
1.976,-0.818,3112
1.980,-1.522,3119
1.984,-2.132,3119
1.988,-2.538,3119
1.992,-2.732,3119
1.996,-2.705,3119
2.000,-1.857,3119
2.004,-1.333,3119
2.008,-0.623,3119
2.012,0.077,3119
2.016,0.790,3115
2.020,1.433,3115
2.024,1.867,3115
2.028,2.078,3115
2.032,2.058,3115
2.036,1.748,3115
2.040,1.240,3115
2.044,0.595,3115
2.048,-0.100,3115
2.052,-0.848,3115
2.056,-1.567,3109
2.060,-2.208,3109
2.064,-2.630,3109
2.068,-2.825,3109
2.072,-2.792,3109
2.076,-2.515,3109
2.080,-1.298,3109
2.084,-0.647,3109
2.088,0.025,3109
2.092,0.738,3121
2.096,1.387,3121
2.100,1.833,3121
2.104,2.050,3121
2.108,2.033,3121
2.112,1.738,3121
2.116,1.238,3121
2.120,0.608,3121
2.124,-0.087,3121
2.128,-0.815,3121
2.132,-1.530,3113
2.136,-2.188,3113
2.140,-2.587,3113
2.144,-2.777,3113
2.148,-2.763,3113
2.152,-2.482,3113
2.156,-2.010,3113
2.160,-0.547,3113
2.164,0.102,3113
2.168,0.782,3134
2.172,1.430,3134
2.176,1.875,3134
2.180,2.103,3134
2.184,2.075,3134
2.188,1.790,3134
2.192,1.272,3134
2.196,0.637,3134
2.200,-0.062,3134
2.204,-0.782,3134
2.208,-1.510,3128
2.212,-2.152,3128
2.216,-2.587,3128
2.220,-2.777,3128
2.224,-2.752,3128
2.228,-2.480,3128
2.232,-2.007,3128
2.236,-1.377,3128
2.240,0.147,3128
2.244,0.772,3157
2.248,1.390,3157
2.252,1.845,3157
2.256,2.060,3157
2.260,2.047,3157
2.264,1.758,3157
2.268,1.265,3157
2.272,0.637,3157
2.276,-0.052,3157
2.280,-0.777,3157
2.284,-1.502,3120
2.288,-2.163,3120
2.292,-2.607,3120
2.296,-2.808,3120
2.300,-2.800,3120
2.304,-2.530,3120
2.308,-2.062,3120
2.312,-1.427,3120
2.316,-0.728,3120
2.320,0.833,3138
2.324,1.835,3138
2.328,2.062,3138
2.332,2.058,3138
2.336,1.778,3138
2.340,1.270,3138
2.344,0.635,3138
2.348,-0.052,3138
2.352,-0.772,3138
2.356,-1.488,3130
2.360,-2.132,3130
2.364,-2.580,3130
2.368,-2.783,3130
2.372,-2.777,3130
2.376,-2.510,3130
2.380,-2.050,3130
2.384,-1.417,3130
2.388,-0.720,3130
2.392,-0.007,3130
2.396,0.718,3134
2.400,1.890,3134
2.404,2.062,3134
2.408,2.055,3134
2.412,1.782,3134
2.416,1.308,3134
2.420,0.667,3134
2.424,-0.033,3134
2.428,-0.755,3134
2.432,-1.480,3128
2.436,-2.132,3128
2.440,-2.572,3128
2.444,-2.768,3128
2.448,-2.768,3128
2.452,-2.505,3128
2.456,-2.035,3128
2.460,-1.410,3128
2.464,-0.703,3128
2.468,0.030,3128
2.472,0.738,3121
2.476,1.395,3121
2.480,2.100,3121
2.484,2.062,3121
2.488,1.785,3121
2.492,1.252,3121
2.496,0.670,3121
2.500,-0.028,3121
2.504,-0.752,3121
2.508,-1.468,3138
2.512,-2.125,3138
2.516,-2.562,3138
2.520,-2.768,3138
2.524,-2.743,3138
2.528,-2.493,3138
2.532,-2.027,3138
2.536,-1.393,3138
2.540,-0.693,3138
2.544,0.043,3138
2.548,0.770,3129
2.552,1.413,3129
2.556,1.867,3129
2.560,2.062,3129
2.564,1.812,3129
2.568,1.325,3129
2.572,0.672,3129
2.576,-0.043,3129
2.580,-0.772,3129
2.584,-1.508,3110
2.588,-2.172,3110
2.592,-2.620,3110
2.596,-2.822,3110
2.600,-2.820,3110
2.604,-2.567,3110
2.608,-2.103,3110
2.612,-1.462,3110
2.616,-0.750,3110
2.620,-0.030,3110
2.624,0.698,3130
2.628,1.353,3130
2.632,1.825,3130
2.636,2.067,3130
2.640,1.728,3130
2.644,1.270,3130
2.648,0.682,3130
2.652,-0.018,3130
2.656,-0.738,3130
2.660,-1.460,3114
2.664,-2.123,3114
2.668,-2.545,3114
2.672,-2.763,3114
2.676,-2.770,3114
2.680,-2.507,3114
2.684,-2.055,3114
2.688,-1.423,3114
2.692,-0.730,3114
2.696,-0.013,3114
2.700,0.713,3126
2.704,1.373,3126
2.708,1.833,3126
2.712,2.072,3126
2.716,2.072,3126
2.720,1.222,3126
2.724,0.693,3126
2.728,-0.022,3126
2.732,-0.743,3126
2.736,-1.470,3126
2.740,-2.120,3123
2.744,-2.583,3123
2.748,-2.788,3123
2.752,-2.792,3123
2.756,-2.545,3123
2.760,-2.098,3123
2.764,-1.470,3123
2.768,-0.765,3123
2.772,-0.043,3123
2.776,0.688,3123
2.780,1.340,3116
2.784,1.823,3116
2.788,2.058,3116
2.792,2.058,3116
2.796,1.790,3116
2.800,0.568,3116
2.804,-0.018,3116
2.808,-0.733,3116
2.812,-1.460,3116
2.816,-2.103,3119
2.820,-2.572,3119
2.824,-2.783,3119
2.828,-2.790,3119
2.832,-2.535,3119
2.836,-2.095,3119
2.840,-1.472,3119
2.844,-0.775,3119
2.848,-0.058,3119
2.852,0.662,3119
2.856,1.317,3127
2.860,1.815,3127
2.864,2.053,3127
2.868,2.062,3127
2.872,1.812,3127
2.876,1.337,3127
2.880,-0.098,3127
2.884,-0.723,3127
2.888,-1.445,3127
2.892,-2.092,3118
2.896,-2.542,3118
2.900,-2.772,3118
2.904,-2.777,3118
2.908,-2.533,3118
2.912,-2.053,3118
2.916,-1.462,3118
2.920,-0.750,3118
2.924,-0.045,3118
2.928,0.688,3118
2.932,1.343,3110
2.936,1.833,3110
2.940,2.075,3110
2.944,2.092,3110
2.948,1.827,3110
2.952,1.347,3110
2.956,0.708,3110
2.960,-0.828,3110
2.964,-1.427,3110
2.968,-2.090,3101
2.972,-2.538,3101
2.976,-2.763,3101
2.980,-2.763,3101
2.984,-2.507,3101
2.988,-2.060,3101
2.992,-1.442,3101
2.996,-0.745,3101
3.000,-0.043,3101
3.004,0.688,3101
3.008,1.343,3120
3.012,1.833,3120
3.016,2.078,3120
3.020,2.107,3120
3.024,1.835,3120
3.028,1.373,3120
3.032,0.730,3120
3.036,0.028,3120
3.040,-1.542,3120
3.044,-2.103,3123
3.048,-2.538,3123
3.052,-2.768,3123
3.056,-2.770,3123
3.060,-2.518,3123
3.064,-2.087,3123
3.068,-1.472,3123
3.072,-0.772,3123
3.076,-0.062,3123
3.080,0.672,3123
3.084,1.333,3159
3.088,1.820,3159
3.092,2.067,3159
3.096,2.095,3159
3.100,1.833,3159
3.104,1.377,3159
3.108,0.745,3159
3.112,0.058,3159
3.116,-0.685,3159
3.120,-2.152,3117
3.124,-2.763,3117
3.128,-2.772,3117
3.132,-2.533,3117
3.136,-2.092,3117
3.140,-1.472,3117
3.144,-0.775,3117
3.148,-0.062,3117
3.152,0.662,3117
3.156,1.327,3117
3.160,1.820,3117
3.164,2.078,3117
3.168,2.107,3117
3.172,1.853,3117
3.176,1.383,3117
3.180,0.748,3117
3.184,0.060,3117
3.188,-0.672,3117
3.192,-1.405,3117
3.196,-2.058,3140
3.200,-2.783,3140
3.204,-2.780,3140
3.208,-2.562,3140
3.212,-2.112,3140
3.216,-1.500,3140
3.220,-0.807,3140
3.224,-0.085,3140
3.228,0.632,3140
3.232,1.305,3134
3.236,1.805,3134
3.240,2.055,3134
3.244,2.078,3134
3.248,1.833,3134
3.252,1.373,3134
3.256,0.748,3134
3.260,0.062,3134
3.264,-0.667,3134
3.268,-1.395,3134
3.272,-2.047,3129
3.276,-2.518,3129
3.280,-2.763,3129
3.284,-2.498,3129
3.288,-2.107,3129
3.292,-1.450,3129
3.296,-0.812,3129
3.300,-0.060,3129
3.304,0.623,3129
3.308,1.272,3137
3.312,1.792,3137
3.316,2.053,3137
3.320,2.078,3137
3.324,1.830,3137
3.328,1.385,3137
3.332,0.757,3137
3.336,0.070,3137
3.340,-0.665,3137
3.344,-1.393,3137
3.348,-2.050,3137
3.352,-2.518,3137
3.356,-2.763,3137
3.360,-2.495,3137
3.364,-2.123,3137
3.368,-1.502,3137
3.372,-0.818,3137
3.376,-0.090,3137
3.380,0.632,3137
3.384,1.302,3135
3.388,1.812,3135
3.392,2.070,3135
3.396,2.112,3135
3.400,1.873,3135
3.404,1.413,3135
3.408,0.777,3135
3.412,0.095,3135
3.416,-0.642,3135
3.420,-1.375,3135
3.424,-2.027,3116
3.428,-2.515,3116
3.432,-2.772,3116
3.436,-2.803,3116
3.440,-2.060,3116
3.444,-1.550,3116
3.448,-0.858,3116
3.452,-0.138,3116
3.456,0.583,3116
3.460,1.245,3126
3.464,1.750,3126
3.468,2.020,3126
3.472,2.070,3126
3.476,1.853,3126
3.480,1.400,3126
3.484,0.787,3126
3.488,0.110,3126
3.492,-0.613,3126
3.496,-1.343,3126
3.500,-2.010,3139
3.504,-2.500,3139
3.508,-2.763,3139
3.512,-2.788,3139
3.516,-2.578,3139
3.520,-1.413,3139
3.524,-0.843,3139
3.528,-0.125,3139
3.532,0.610,3139
3.536,1.295,3131
3.540,1.798,3131
3.544,2.062,3131
3.548,2.098,3131
3.552,1.860,3131
3.556,1.397,3131
3.560,0.770,3131
3.564,0.068,3131
3.568,-0.670,3131
3.572,-1.403,3131
3.576,-2.055,3122
3.580,-2.567,3122
3.584,-2.805,3122
3.588,-2.833,3122
3.592,-2.620,3122
3.596,-2.185,3122
3.600,-0.748,3122
3.604,-0.163,3122
3.608,0.578,3122
3.612,1.258,3100
3.616,1.785,3100
3.620,2.062,3100
3.624,2.127,3100
3.628,1.893,3100
3.632,1.438,3100
3.636,0.825,3100
3.640,0.133,3100
3.644,-0.613,3100
3.648,-1.343,3100
3.652,-2.018,3128
3.656,-2.510,3128
3.660,-2.770,3128
3.664,-2.808,3128
3.668,-2.592,3128
3.672,-2.160,3128
3.676,-1.542,3128
3.680,0.013,3128
3.684,0.600,3128
3.688,1.312,3107
3.692,1.808,3107
3.696,2.067,3107
3.700,2.127,3107
3.704,1.893,3107
3.708,1.455,3107
3.712,0.828,3107
3.716,0.133,3107
3.720,-0.610,3107
3.724,-1.333,3107
3.728,-2.007,3129
3.732,-2.510,3129
3.736,-2.783,3129
3.740,-2.817,3129
3.744,-2.615,3129
3.748,-2.183,3129
3.752,-1.575,3129
3.756,-0.880,3129
3.760,0.690,3129
3.764,1.272,3100
3.768,1.805,3100
3.772,2.072,3100
3.776,2.132,3100
3.780,1.903,3100
3.784,1.458,3100
3.788,0.833,3100
3.792,0.138,3100
3.796,-0.593,3100
3.800,-1.337,3100
3.804,-2.007,3100
3.808,-2.507,3131
3.812,-2.783,3131
3.816,-2.825,3131
3.820,-2.620,3131
3.824,-2.192,3131
3.828,-1.603,3131
3.832,-0.892,3131
3.836,-0.172,3131
3.840,1.353,3118
3.844,2.092,3118
3.848,2.138,3118
3.852,1.910,3118
3.856,1.470,3118
3.860,0.853,3118
3.864,0.155,3118
3.868,-0.573,3118
3.872,-1.312,3118
3.876,-1.995,3118
3.880,-2.500,3155
3.884,-2.777,3155
3.888,-2.822,3155
3.892,-2.618,3155
3.896,-2.205,3155
3.900,-1.603,3155
3.904,-0.897,3155
3.908,-0.182,3155
3.912,0.547,3155
3.916,1.222,3155
3.920,2.067,3109
3.924,1.867,3109
3.928,1.452,3109
3.932,0.848,3109
3.936,0.152,3109
3.940,-0.575,3109
3.944,-1.312,3109
3.948,-1.982,3109
3.952,-2.485,3104
3.956,-2.752,3104
3.960,-2.803,3104
3.964,-2.607,3104
3.968,-2.180,3104
3.972,-1.573,3104
3.976,-0.882,3104
3.980,-0.163,3104
3.984,0.578,3104
3.988,1.258,3104
3.992,1.788,3118
3.996,2.098,3118
4.000,1.857,3118
4.004,1.468,3118
4.008,0.838,3118
4.012,0.138,3118
4.016,-0.585,3118
4.020,-1.337,3118
4.024,-2.013,3118
4.028,-2.513,3103
4.032,-2.803,3103
4.036,-2.842,3103
4.040,-2.638,3103
4.044,-2.220,3103
4.048,-1.617,3103
4.052,-0.907,3103
4.056,-0.203,3103
4.060,0.537,3103
4.064,1.215,3103
4.068,1.750,3128
4.072,2.078,3128
4.076,2.138,3128
4.080,1.395,3128
4.084,0.887,3128
4.088,0.198,3128
4.092,-0.573,3128
4.096,-1.258,3128
4.100,-1.927,3128
4.104,-2.442,3111
4.108,-2.730,3111
4.112,-2.780,3111
4.116,-2.603,3111
4.120,-2.190,3111
4.124,-1.617,3111
4.128,-0.930,3111
4.132,-0.223,3111
4.136,0.502,3111
4.140,1.180,3111
4.144,1.710,3108
4.148,2.018,3108
4.152,2.070,3108
4.156,1.875,3108
4.160,0.748,3108
4.164,0.182,3108
4.168,-0.532,3108
4.172,-1.235,3108
4.176,-1.925,3108
4.180,-2.428,3119
4.184,-2.708,3119
4.188,-2.777,3119
4.192,-2.612,3119
4.196,-2.208,3119
4.200,-1.625,3119
4.204,-0.943,3119
4.208,-0.250,3119
4.212,0.463,3119
4.216,1.140,3119
4.220,1.670,3122
4.224,1.985,3122
4.228,2.058,3122
4.232,1.867,3122
4.236,1.468,3122
4.240,0.102,3122
4.244,-0.497,3122
4.248,-1.202,3122
4.252,-1.873,3122
4.256,-2.382,3132
4.260,-2.683,3132
4.264,-2.750,3132
4.268,-2.592,3132
4.272,-2.188,3132
4.276,-1.627,3132
4.280,-0.948,3132
4.284,-0.263,3132
4.288,0.458,3132
4.292,1.113,3132
4.296,1.650,3135
4.300,1.972,3135
4.304,2.038,3135
4.308,1.857,3135
4.312,1.438,3135
4.316,0.860,3135
4.320,-0.662,3135
4.324,-1.242,3135
4.328,-1.873,3135
4.332,-2.413,3134
4.336,-2.688,3134
4.340,-2.513,3134
4.344,-2.132,3134
4.348,-1.567,3134
4.352,-0.912,3134
4.356,-0.242,3134
4.360,0.448,3134
4.364,1.077,3134
4.368,1.593,3118
4.372,1.887,3118
4.376,1.958,3118
4.380,1.758,3118
4.384,1.357,3118
4.388,0.782,3118
4.392,0.128,3118
4.396,-0.547,3118
4.400,-2.002,3118
4.404,-2.422,3146
4.408,-2.670,3146
4.412,-2.495,3146
4.416,-2.132,3146
4.420,-1.562,3146
4.424,-0.925,3146
4.428,-0.253,3146
4.432,0.427,3146
4.436,1.060,3146
4.440,1.558,3121
4.444,1.847,3121
4.448,1.903,3121
4.452,1.730,3121
4.456,1.327,3121
4.460,0.780,3121
4.464,0.172,3121
4.468,-0.497,3121
4.472,-1.163,3121
4.476,-1.782,3121
4.480,-2.578,3143
4.484,-2.018,3143
4.488,-1.495,3143
4.492,-0.868,3143
4.496,-0.223,3143
4.500,0.422,3143
4.504,1.038,3143
4.508,1.530,3128
4.512,1.802,3128
4.516,1.860,3128
4.520,1.680,3128
4.524,1.308,3128
4.528,0.767,3128
4.532,0.147,3128
4.536,-0.502,3128
4.540,-1.163,3128
4.544,-1.772,3128
4.548,-2.248,3139
4.552,-2.500,3139
4.556,-2.567,3139
4.560,-1.968,3139
4.564,-1.465,3139
4.568,-0.892,3139
4.572,-0.253,3139
4.576,0.390,3139
4.580,1.008,3139
4.584,1.490,3110
4.588,1.755,3110
4.592,1.817,3110
4.596,1.647,3110
4.600,1.258,3110
4.604,0.733,3110
4.608,0.133,3110
4.612,-0.507,3110
4.616,-1.153,3110
4.620,-1.742,3110
4.624,-2.205,3124
4.628,-2.458,3124
4.632,-2.502,3124
4.636,-2.342,3124
4.640,-1.377,3124
4.644,-0.865,3124
4.648,-0.247,3124
4.652,0.380,3124
4.656,0.980,3124
4.660,1.452,3123
4.664,1.715,3123
4.668,1.785,3123
4.672,1.625,3123
4.676,1.252,3123
4.680,0.743,3123
4.684,0.152,3123
4.688,-0.453,3123
4.692,-1.073,3123
4.696,-1.655,3123
4.700,-2.107,3125
4.704,-2.368,3125
4.708,-2.428,3125
4.712,-2.285,3125
4.716,-1.942,3125
4.720,-0.762,3125
4.724,-0.260,3125
4.728,0.357,3125
4.732,0.940,3125
4.736,1.407,3125
4.740,1.663,3124
4.744,1.732,3124
4.748,1.583,3124
4.752,1.228,3124
4.756,0.738,3124
4.760,0.158,3124
4.764,-0.427,3124
4.768,-1.052,3124
4.772,-1.623,3124
4.776,-2.062,3124
4.780,-2.328,3125
4.784,-2.348,3125
4.788,-2.252,3125
4.792,-1.903,3125
4.796,-1.415,3125
4.800,-0.175,3125
4.804,0.340,3125
4.808,0.927,3125
4.812,1.335,3125
4.816,1.593,3127
4.820,1.667,3127
4.824,1.532,3127
4.828,1.208,3127
4.832,0.713,3127
4.836,0.128,3127
4.840,-0.445,3127
4.844,-1.052,3127
4.848,-1.633,3127
4.852,-2.100,3127
4.856,-2.362,3125
4.860,-2.447,3125
4.864,-2.328,3125
4.868,-2.018,3125
4.872,-1.542,3125
4.876,-0.983,3125
4.880,0.333,3125
4.884,0.795,3125
4.888,1.268,3125
4.892,1.567,3106
4.896,1.673,3106
4.900,1.565,3106
4.904,1.258,3106
4.908,0.787,3106
4.912,0.233,3106
4.916,-0.362,3106
4.920,-0.980,3106
4.924,-1.555,3106
4.928,-2.033,3106
4.932,-2.312,3113
4.936,-2.422,3113
4.940,-2.312,3113
4.944,-2.013,3113
4.948,-1.545,3113
4.952,-0.985,3113
4.956,-0.407,3113
4.960,0.863,3113
4.964,1.268,3113
4.968,1.558,3109
4.972,1.663,3109
4.976,1.548,3109
4.980,1.238,3109
4.984,0.777,3109
4.988,0.230,3109
4.992,-0.347,3109
4.996,-0.963,3109
5.000,-1.542,3109
5.004,-1.992,3109
5.008,-2.270,3104
5.012,-2.368,3104
5.016,-2.265,3104
5.020,-1.968,3104
5.024,-1.512,3104
5.028,-0.973,3104
5.032,-0.405,3104
5.036,0.190,3104
5.040,1.298,3104
5.044,1.510,3100
5.048,1.613,3100
5.052,1.492,3100
5.056,1.188,3100
5.060,0.730,3100
5.064,0.207,3100
5.068,-0.362,3100
5.072,-0.940,3100
5.076,-1.498,3100
5.080,-1.948,3100
5.084,-2.217,3118
5.088,-2.303,3118
5.092,-2.208,3118
5.096,-1.907,3118
5.100,-1.480,3118
5.104,-0.943,3118
5.108,-0.403,3118
5.112,0.158,3118
5.116,0.690,3118
5.120,1.397,3096
5.124,1.357,3096
5.128,1.093,3096
5.132,0.670,3096
5.136,0.175,3096
5.140,-0.370,3096
5.144,-0.925,3096
5.148,-1.458,3096
5.152,-1.887,3096
5.156,-2.147,3116
5.160,-2.230,3116
5.164,-2.132,3116
5.168,-1.860,3116
5.172,-1.445,3116
5.176,-0.935,3116
5.180,-0.415,3116
5.184,0.145,3116
5.188,0.667,3116
5.192,1.100,3116
5.196,1.377,3127
5.200,1.335,3127
5.204,1.090,3127
5.208,0.672,3127
5.212,0.180,3127
5.216,-0.362,3127
5.220,-0.902,3127
5.224,-1.452,3127
5.228,-1.855,3127
5.232,-2.107,3122
5.236,-2.203,3122
5.240,-2.107,3122
5.244,-1.817,3122
5.248,-1.413,3122
5.252,-0.930,3122
5.256,-0.412,3122
5.260,0.133,3122
5.264,0.652,3122
5.268,1.067,3122
5.272,1.343,3138
5.276,1.435,3138
5.280,1.020,3138
5.284,0.667,3138
5.288,0.180,3138
5.292,-0.338,3138
5.296,-0.882,3138
5.300,-1.393,3138
5.304,-1.812,3138
5.308,-2.058,3134
5.312,-2.147,3134
5.316,-2.058,3134
5.320,-1.802,3134
5.324,-1.390,3134
5.328,-0.900,3134
5.332,-0.388,3134
5.336,0.140,3134
5.340,0.657,3134
5.344,1.073,3134
5.348,1.343,3139
5.352,1.435,3139
5.356,1.353,3139
5.360,0.613,3139
5.364,0.172,3139
5.368,-0.328,3139
5.372,-0.853,3139
5.376,-1.373,3139
5.380,-1.790,3139
5.384,-2.047,3144
5.388,-2.145,3144
5.392,-2.062,3144
5.396,-1.812,3144
5.400,-1.415,3144
5.404,-0.927,3144
5.408,-0.425,3144
5.412,0.107,3144
5.416,0.608,3144
5.420,1.028,3144
5.424,1.300,3132
5.428,1.390,3132
5.432,1.310,3132
5.436,1.058,3132
5.440,0.105,3132
5.444,-0.333,3132
5.448,-0.860,3132
5.452,-1.373,3132
5.456,-1.792,3132
5.460,-2.035,3134
5.464,-2.135,3134
5.468,-2.053,3134
5.472,-1.802,3134
5.476,-1.410,3134
5.480,-0.922,3134
5.484,-0.420,3134
5.488,0.102,3134
5.492,0.608,3134
5.496,1.022,3134
5.500,1.268,3137
5.504,1.373,3137
5.508,1.268,3137
5.512,1.020,3137
5.516,0.620,3137
5.520,-0.443,3137
5.524,-0.873,3137
5.528,-1.377,3137
5.532,-1.788,3137
5.536,-2.033,3123
5.540,-2.132,3123
5.544,-2.045,3123
5.548,-1.802,3123
5.552,-1.393,3123
5.556,-0.922,3123
5.560,-0.412,3123
5.564,0.113,3123
5.568,0.620,3123
5.572,1.028,3123
5.576,1.298,3128
5.580,1.387,3128
5.584,1.310,3128
5.588,1.048,3128
5.592,0.662,3128
5.596,0.188,3128
5.600,-0.915,3128
5.604,-1.337,3128
5.608,-1.742,3128
5.612,-2.013,3119
5.616,-2.105,3119
5.620,-2.020,3119
5.624,-1.782,3119
5.628,-1.390,3119
5.632,-0.930,3119
5.636,-0.427,3119
5.640,0.098,3119
5.644,0.588,3119
5.648,1.018,3119
5.652,1.272,3122
5.656,1.377,3122
5.660,1.310,3122
5.664,1.058,3122
5.668,0.667,3122
5.672,0.207,3122
5.676,-0.282,3122
5.680,-1.387,3122
5.684,-1.718,3122
5.688,-1.982,3124
5.692,-2.092,3124
5.696,-2.013,3124
5.700,-1.772,3124
5.704,-1.387,3124
5.708,-0.925,3124
5.712,-0.432,3124
5.716,0.072,3124
5.720,0.573,3124
5.724,0.988,3124
5.728,1.238,3122
5.732,1.347,3122
5.736,1.292,3122
5.740,1.048,3122
5.744,0.667,3122
5.748,0.207,3122
5.752,-0.295,3122
5.756,-0.818,3122
5.760,-1.802,3122
5.764,-1.988,3122
5.768,-2.098,3108
5.772,-1.770,3108
5.776,-1.397,3108
5.780,-0.932,3108
5.784,-0.435,3108
5.788,0.092,3108
5.792,0.578,3108
5.796,0.998,3108
5.800,1.258,3108
5.804,1.367,3107
5.808,1.300,3107
5.812,1.052,3107
5.816,0.677,3107
5.820,0.223,3107
5.824,-0.265,3107
5.828,-0.780,3107
5.832,-1.292,3107
5.836,-1.702,3107
5.840,-2.085,3115
5.844,-1.765,3115
5.848,-1.417,3115
5.852,-0.948,3115
5.856,-0.463,3115
5.860,0.048,3115
5.864,0.537,3115
5.868,0.948,3115
5.872,1.205,3115
5.876,1.327,3119
5.880,1.248,3119
5.884,1.020,3119
5.888,0.652,3119
5.892,0.203,3119
5.896,-0.287,3119
5.900,-0.800,3119
5.904,-1.252,3119
5.908,-1.692,3119
5.912,-1.948,3119
5.916,-2.047,3108
5.920,-1.702,3108
5.924,-1.393,3108
5.928,-0.938,3108
5.932,-0.458,3108
5.936,0.043,3108
5.940,0.525,3108
5.944,0.932,3108
5.948,1.198,3108
5.952,1.317,3081
5.956,1.248,3081
5.960,1.018,3081
5.964,0.637,3081
5.968,0.207,3081
5.972,-0.270,3081
5.976,-0.780,3081
5.980,-1.262,3081
5.984,-1.685,3081
5.988,-1.950,3081
5.992,-2.065,3105
5.996,-2.002,3105
6.000,-1.353,3105
6.004,-0.863,3105
6.008,-0.463,3105
6.012,0.043,3105
6.016,0.542,3105
6.020,0.943,3105
6.024,1.215,3105
6.028,1.333,3117
6.032,1.295,3117
6.036,1.060,3117
6.040,0.703,3117
6.044,0.253,3117
6.048,-0.233,3117
6.052,-0.752,3117
6.056,-1.238,3117
6.060,-1.663,3117
6.064,-1.938,3117
6.068,-2.035,3110
6.072,-1.992,3110
6.076,-1.785,3110
6.080,-0.897,3110
6.084,-0.500,3110
6.088,-0.005,3110
6.092,0.495,3110
6.096,0.902,3110
6.100,1.167,3110
6.104,1.275,3124
6.108,1.222,3124
6.112,1.018,3124
6.116,0.662,3124
6.120,0.212,3124
6.124,-0.260,3124
6.128,-0.767,3124
6.132,-1.238,3124
6.136,-1.667,3124
6.140,-1.938,3124
6.144,-2.047,3120
6.148,-1.990,3120
6.152,-1.772,3120
6.156,-1.400,3120
6.160,-0.375,3120
6.164,0.052,3120
6.168,0.540,3120
6.172,0.953,3120
6.176,1.222,3120
6.180,1.340,3138
6.184,1.272,3138
6.188,1.050,3138
6.192,0.698,3138
6.196,0.247,3138
6.200,-0.233,3138
6.204,-0.740,3138
6.208,-1.230,3138
6.212,-1.663,3138
6.216,-1.942,3138
6.220,-2.060,3129
6.224,-2.007,3129
6.228,-1.802,3129
6.232,-1.442,3129
6.236,-0.988,3129
6.240,0.113,3129
6.244,0.505,3129
6.248,0.938,3129
6.252,1.188,3129
6.256,1.323,3131
6.260,1.255,3131
6.264,1.040,3131
6.268,0.698,3131
6.272,0.253,3131
6.276,-0.223,3131
6.280,-0.728,3131
6.284,-1.220,3131
6.288,-1.647,3131
6.292,-1.907,3131
6.296,-2.022,3114
6.300,-1.978,3114
6.304,-1.745,3114
6.308,-1.393,3114
6.312,-0.940,3114
6.316,-0.468,3114
6.320,0.588,3114
6.324,0.945,3114
6.328,1.232,3114
6.332,1.330,3132
6.336,1.028,3132
6.340,0.700,3132
6.344,0.253,3132
6.348,-0.223,3132
6.352,-0.733,3132
6.356,-1.222,3132
6.360,-1.647,3132
6.364,-1.923,3132
6.368,-2.038,3093
6.372,-1.992,3093
6.376,-1.790,3093
6.380,-1.452,3093
6.384,-0.980,3093
6.388,-0.532,3093
6.392,-0.043,3093
6.396,0.450,3093
6.400,1.175,3093
6.404,1.212,3137
6.408,1.012,3137
6.412,0.677,3137
6.416,0.250,3137
6.420,-0.228,3137
6.424,-0.733,3137
6.428,-1.218,3137
6.432,-1.643,3137
6.436,-1.907,3137
6.440,-2.027,3109
6.444,-1.995,3109
6.448,-1.792,3109
6.452,-1.450,3109
6.456,-1.002,3109
6.460,-0.527,3109
6.464,-0.028,3109
6.468,0.468,3109
6.472,0.892,3109
6.476,1.177,3109
6.480,1.238,3123
6.484,0.700,3123
6.488,0.265,3123
6.492,-0.207,3123
6.496,-0.713,3123
6.500,-1.205,3123
6.504,-1.630,3123
6.508,-1.925,3123
6.512,-2.035,3140
6.516,-1.998,3140
6.520,-1.800,3140
6.524,-1.448,3140
6.528,-0.990,3140
6.532,-0.522,3140
6.536,-0.018,3140
6.540,0.472,3140
6.544,0.897,3140
6.548,1.188,3140
6.552,1.327,3134
6.556,1.268,3134
6.560,0.632,3134
6.564,0.263,3134
6.568,-0.258,3134
6.572,-0.740,3134
6.576,-1.367,3134
6.580,-1.650,3134
6.584,-1.907,3134
6.588,-2.030,3137
6.592,-2.005,3137
6.596,-1.792,3137
6.600,-1.452,3137
6.604,-1.008,3137
6.608,-0.527,3137
6.612,-0.025,3137
6.616,0.468,3137
6.620,0.895,3137
6.624,1.177,3137
6.628,1.308,3104
6.632,1.258,3104
6.636,1.058,3104
6.640,0.193,3104
6.644,-0.212,3104
6.648,-0.723,3104
6.652,-1.202,3104
6.656,-1.630,3104
6.660,-1.900,3104
6.664,-2.030,3127
6.668,-2.007,3127
6.672,-1.808,3127
6.676,-1.460,3127
6.680,-1.012,3127
6.684,-0.532,3127
6.688,-0.033,3127
6.692,0.458,3127
6.696,0.887,3127
6.700,1.173,3127
6.704,1.308,3122
6.708,1.252,3122
6.712,1.052,3122
6.716,0.703,3122
6.720,-0.307,3122
6.724,-0.738,3122
6.728,-1.248,3122
6.732,-1.657,3122
6.736,-1.923,3122
6.740,-2.033,3120
6.744,-2.007,3120
6.748,-1.808,3120
6.752,-1.462,3120
6.756,-1.025,3120
6.760,-0.550,3120
6.764,-0.033,3120
6.768,0.455,3120
6.772,0.882,3120
6.776,1.180,3120
6.780,1.310,3120
6.784,1.268,3117
6.788,1.058,3117
6.792,0.710,3117
6.796,0.278,3117
6.800,-0.777,3117
6.804,-1.188,3117
6.808,-1.627,3117
6.812,-1.903,3117
6.816,-2.033,3117
6.820,-2.018,3108
6.824,-1.820,3108
6.828,-1.482,3108
6.832,-1.042,3108
6.836,-0.562,3108
6.840,-0.070,3108
6.844,0.417,3108
6.848,0.848,3108
6.852,1.143,3108
6.856,1.262,3108
6.860,1.232,3123
6.864,1.028,3123
6.868,0.688,3123
6.872,0.247,3123
6.876,-0.228,3123
6.880,-1.300,3123
6.884,-1.690,3123
6.888,-1.927,3123
6.892,-2.047,3123
6.896,-2.018,3122
6.900,-1.808,3122
6.904,-1.468,3122
6.908,-1.020,3122
6.912,-0.542,3122
6.916,-0.043,3122
6.920,0.458,3122
6.924,0.875,3122
6.928,1.170,3122
6.932,1.300,3122
6.936,1.252,3108
6.940,1.050,3108
6.944,0.703,3108
6.948,0.258,3108
6.952,-0.225,3108
6.956,-0.728,3108
6.960,-1.695,3108
6.964,-1.933,3108
6.968,-2.055,3108
6.972,-2.027,3096
6.976,-1.823,3096
6.980,-1.490,3096
6.984,-1.045,3096
6.988,-0.573,3096
6.992,-0.075,3096
6.996,0.422,3096
7.000,0.863,3096
7.004,1.167,3096
7.008,1.308,3096
7.012,1.272,3113
7.016,1.067,3113
7.020,0.733,3113
7.024,0.287,3113
7.028,-0.193,3113
7.032,-0.698,3113
7.036,-1.190,3113
7.040,-1.962,3113
7.044,-2.022,3106
7.048,-1.830,3106
7.052,-1.492,3106
7.056,-1.048,3106
7.060,-0.573,3106
7.064,-0.083,3106
7.068,0.420,3106
7.072,0.853,3106
7.076,1.147,3106
7.080,1.298,3106
7.084,1.258,3098
7.088,1.060,3098
7.092,0.718,3098
7.096,0.292,3098
7.100,-0.188,3098
7.104,-0.690,3098
7.108,-1.177,3098
7.112,-1.617,3098
7.116,-1.907,3098
7.120,-1.992,3118
7.124,-1.458,3118
7.128,-1.052,3118
7.132,-0.575,3118
7.136,-0.068,3118
7.140,0.427,3118
7.144,0.863,3118
7.148,1.173,3118
7.152,1.308,3118
7.156,1.268,3125
7.160,1.067,3125
7.164,0.738,3125
7.168,0.297,3125
7.172,-0.203,3125
7.176,-0.695,3125
7.180,-1.188,3125
7.184,-1.627,3125
7.188,-1.927,3125
7.192,-2.058,3125
7.196,-2.033,3124
7.200,-1.442,3124
7.204,-1.062,3124
7.208,-0.573,3124
7.212,-0.072,3124
7.216,0.432,3124
7.220,0.885,3124
7.224,1.198,3124
7.228,1.350,3124
7.232,1.337,3115
7.236,1.117,3115
7.240,0.787,3115
7.244,0.352,3115
7.248,-0.133,3115
7.252,-0.652,3115
7.256,-1.163,3115
7.260,-1.617,3115
7.264,-1.907,3115
7.268,-2.053,3115
7.272,-2.027,3118
7.276,-1.833,3118
7.280,-0.993,3118
7.284,-0.595,3118
7.288,-0.102,3118
7.292,0.393,3118
7.296,0.838,3118
7.300,1.143,3118
7.304,1.292,3118
7.308,1.262,3134
7.312,1.067,3134
7.316,0.735,3134
7.320,0.297,3134
7.324,-0.180,3134
7.328,-0.688,3134
7.332,-1.177,3134
7.336,-1.627,3134
7.340,-1.938,3134
7.344,-2.067,3134
7.348,-2.050,3127
7.352,-1.853,3127
7.356,-1.512,3127
7.360,-0.497,3127
7.364,-0.072,3127
7.368,0.438,3127
7.372,0.885,3127
7.376,1.188,3127
7.380,1.347,3127
7.384,1.337,3131
7.388,1.117,3131
7.392,0.787,3131
7.396,0.355,3131
7.400,-0.135,3131
7.404,-0.640,3131
7.408,-1.135,3131
7.412,-1.583,3131
7.416,-1.893,3131
7.420,-2.042,3131
7.424,-2.038,3126
7.428,-1.857,3126
7.432,-1.532,3126
7.436,-1.095,3126
7.440,-0.033,3126
7.444,0.388,3126
7.448,0.845,3126
7.452,1.157,3126
7.456,1.323,3126
7.460,1.323,3140
7.464,1.113,3140
7.468,0.785,3140
7.472,0.347,3140
7.476,-0.147,3140
7.480,-0.662,3140
7.484,-1.167,3140
7.488,-1.613,3140
7.492,-1.923,3140
7.496,-2.062,3140
7.500,-2.042,3130
7.504,-1.863,3130
7.508,-1.532,3130
7.512,-1.093,3130
7.516,-0.603,3130
7.520,0.497,3130
7.524,0.863,3130
7.528,1.177,3130
7.532,1.340,3130
7.536,1.325,3125
7.540,1.117,3125
7.544,0.785,3125
7.548,0.350,3125
7.552,-0.133,3125
7.556,-0.652,3125
7.560,-1.170,3125
7.564,-1.603,3125
7.568,-1.903,3125
7.572,-2.058,3125
7.576,-2.050,3132
7.580,-1.867,3132
7.584,-1.538,3132
7.588,-1.093,3132
7.592,-0.608,3132
7.596,-0.102,3132
7.600,0.892,3132
7.604,1.140,3132
7.608,1.302,3132
7.612,1.272,3135
7.616,1.077,3135
7.620,0.757,3135
7.624,0.318,3135
7.628,-0.168,3135
7.632,-0.680,3135
7.636,-1.183,3135
7.640,-1.643,3135
7.644,-1.945,3135
7.648,-2.083,3135
7.652,-2.060,3137
7.656,-1.863,3137
7.660,-1.532,3137
7.664,-1.090,3137
7.668,-0.598,3137
7.672,-0.092,3137
7.676,0.417,3137
7.680,1.198,3137
7.684,1.340,3137
7.688,1.323,3126
7.692,1.103,3126
7.696,0.772,3126
7.700,0.335,3126
7.704,-0.168,3126
7.708,-0.688,3126
7.712,-1.183,3126
7.716,-1.647,3126
7.720,-1.950,3126
7.724,-2.100,3126
7.728,-2.087,3145
7.732,-1.893,3145
7.736,-1.570,3145
7.740,-1.133,3145
7.744,-0.652,3145
7.748,-0.140,3145
7.752,0.367,3145
7.756,0.820,3145
7.760,1.327,3145
7.764,1.312,3118
7.768,1.113,3118
7.772,0.782,3118
7.776,0.352,3118
7.780,-0.128,3118
7.784,-0.640,3118
7.788,-1.140,3118
7.792,-1.607,3118
7.796,-1.925,3118
7.800,-2.062,3118
7.804,-2.058,3118
7.808,-1.885,3129
7.812,-1.540,3129
7.816,-1.097,3129
7.820,-0.613,3129
7.824,-0.117,3129
7.828,0.383,3129
7.832,0.833,3129
7.836,1.153,3129
7.840,1.298,3116
7.844,0.777,3116
7.848,0.340,3116
7.852,-0.147,3116
7.856,-0.670,3116
7.860,-1.180,3116
7.864,-1.640,3116
7.868,-1.952,3116
7.872,-2.107,3116
7.876,-2.107,3116
7.880,-1.930,3131
7.884,-1.603,3131
7.888,-1.163,3131
7.892,-0.672,3131
7.896,-0.165,3131
7.900,0.357,3131
7.904,0.818,3131
7.908,1.143,3131
7.912,1.323,3131
7.916,1.308,3131
7.920,0.703,3119
7.924,-0.138,3119
7.928,-0.647,3119
7.932,-1.143,3119
7.936,-1.605,3119
7.940,-1.938,3119
7.944,-2.062,3119
7.948,-2.062,3119
7.952,-1.883,3124
7.956,-1.542,3124
7.960,-1.103,3124
7.964,-0.613,3124
7.968,-0.110,3124
7.972,0.398,3124
7.976,0.863,3124
7.980,1.180,3124
7.984,1.345,3124
7.988,1.345,3124
7.992,1.147,3065
7.996,0.818,3065
8.000,-0.188,3065
8.004,-0.620,3065
8.008,-1.133,3065
8.012,-1.583,3065
8.016,-1.907,3065
8.020,-2.080,3065
8.024,-2.062,3065
8.028,-1.893,3121
8.032,-1.562,3121
8.036,-1.125,3121
8.040,-0.642,3121
8.044,-0.130,3121
8.048,0.380,3121
8.052,0.833,3121
8.056,1.157,3121
8.060,1.335,3121
8.064,1.337,3121
8.068,1.147,3113
8.072,0.818,3113
8.076,-0.203,3113
8.080,-1.265,3113
8.084,-1.587,3113
8.088,-1.923,3113
8.092,-2.085,3113
8.096,-2.085,3113
8.100,-1.897,3109
8.104,-1.570,3109
8.108,-1.137,3109
8.112,-0.657,3109
8.116,-0.147,3109
8.120,0.370,3109
8.124,0.828,3109
8.128,1.170,3109
8.132,1.347,3109
8.136,1.355,3109
8.140,1.173,3083
8.144,0.833,3083
8.148,0.398,3083
8.152,-0.090,3083
8.156,-0.608,3083
8.160,-1.663,3083
8.164,-1.942,3083
8.168,-2.060,3083
8.172,-2.042,3083
8.176,-1.890,3124
8.180,-1.083,3124
8.184,-0.642,3124
8.188,-0.125,3124
8.192,0.388,3124
8.196,0.850,3124
8.200,1.180,3124
8.204,1.350,3124
8.208,1.353,3124
8.212,1.167,3113
8.216,0.825,3113
8.220,0.388,3113
8.224,-0.113,3113
8.228,-0.625,3113
8.232,-1.145,3113
8.236,-1.615,3113
8.240,-2.123,3113
8.244,-2.107,3113
8.248,-1.938,3133
8.252,-1.133,3133
8.256,-0.667,3133
8.260,-0.163,3133
8.264,0.370,3133
8.268,0.835,3133
8.272,1.175,3133
8.276,1.353,3133
8.280,1.370,3133
8.284,1.183,3068
8.288,0.848,3068
8.292,0.412,3068
8.296,-0.087,3068
8.300,-0.613,3068
8.304,-1.097,3068
8.308,-1.548,3068
8.312,-1.883,3068
8.316,-2.045,3068
8.320,-1.482,3127
8.324,-0.588,3127
8.328,-0.122,3127
8.332,0.388,3127
8.336,0.848,3127
8.340,1.167,3127
8.344,1.340,3127
8.348,1.347,3127
8.352,1.157,3127
8.356,0.825,3127
8.360,0.380,3127
8.364,-0.098,3127
8.368,-0.620,3127
8.372,-1.137,3127
8.376,-1.607,3127
8.380,-1.933,3127
8.384,-2.098,3127
8.388,-2.103,3127
8.392,-1.938,3136
8.396,-1.607,3136
8.400,-0.593,3136
8.404,-0.180,3136
8.408,0.343,3136
8.412,0.797,3136
8.416,1.143,3136
8.420,1.337,3136
8.424,1.347,3136
8.428,1.173,3141
8.432,0.848,3141
8.436,0.417,3141
8.440,-0.087,3141
8.444,-0.588,3141
8.448,-1.110,3141
8.452,-1.577,3141
8.456,-1.925,3141
8.460,-2.092,3141
8.464,-2.105,3141
8.468,-1.927,3130
8.472,-1.605,3130
8.476,-1.163,3130
8.480,-0.075,3130
8.484,0.352,3130
8.488,0.818,3130
8.492,1.155,3130
8.496,1.343,3130
8.500,1.357,3130
8.504,1.183,3139
8.508,0.848,3139
8.512,0.412,3139
8.516,-0.083,3139
8.520,-0.598,3139
8.524,-1.107,3139
8.528,-1.583,3139
8.532,-1.935,3139
8.536,-2.107,3139
8.540,-2.123,3139
8.544,-1.942,3129
8.548,-1.617,3129
8.552,-1.177,3129
8.556,-0.682,3129
8.560,0.427,3129
8.564,0.818,3129
8.568,1.157,3129
8.572,1.343,3129
8.576,1.353,3129
8.580,1.183,3139
8.584,0.848,3139
8.588,0.422,3139
8.592,-0.065,3139
8.596,-0.580,3139
8.600,-1.100,3139
8.604,-1.562,3139
8.608,-1.905,3139
8.612,-2.100,3139
8.616,-2.107,3139
8.620,-1.945,3135
8.624,-1.633,3135
8.628,-1.192,3135
8.632,-0.703,3135
8.636,-0.200,3135
8.640,0.860,3135
8.644,1.137,3135
8.648,1.333,3135
8.652,1.355,3135
8.656,1.188,3115
8.660,0.863,3115
8.664,0.427,3115
8.668,-0.055,3115
8.672,-0.562,3115
8.676,-1.073,3115
8.680,-1.558,3115
8.684,-1.867,3115
8.688,-2.033,3115
8.692,-2.042,3115
8.696,-1.877,3124
8.700,-1.567,3124
8.704,-1.110,3124
8.708,-0.647,3124
8.712,-0.142,3124
8.716,0.372,3124
8.720,1.208,3124
8.724,1.353,3124
8.728,1.353,3124
8.732,1.188,3125
8.736,0.855,3125
8.740,0.417,3125
8.744,-0.072,3125
8.748,-0.590,3125
8.752,-1.103,3125
8.756,-1.577,3125
8.760,-1.927,3125
8.764,-2.100,3125
8.768,-2.112,3125
8.772,-1.945,3111
8.776,-1.630,3111
8.780,-1.183,3111
8.784,-0.695,3111
8.788,-0.188,3111
8.792,0.340,3111
8.796,0.797,3111
8.800,1.355,3111
8.804,1.375,3111
8.808,1.205,3111
8.812,0.875,3116
8.816,0.427,3116
8.820,-0.058,3116
8.824,-0.573,3116
8.828,-1.087,3116
8.832,-1.562,3116
8.836,-1.907,3116
8.840,-2.092,3116
8.844,-2.105,3116
8.848,-1.942,3116
8.852,-1.627,3127
8.856,-1.173,3127
8.860,-0.693,3127
8.864,-0.182,3127
8.868,0.340,3127
8.872,0.795,3127
8.876,1.153,3127
8.880,1.353,3127
8.884,1.192,3127
8.888,0.868,3102
8.892,0.425,3102
8.896,-0.060,3102
8.900,-0.583,3102
8.904,-1.107,3102
8.908,-1.587,3102
8.912,-1.940,3102
8.916,-2.127,3102
8.920,-2.135,3102
8.924,-1.972,3102
8.928,-1.653,3083
8.932,-1.188,3083
8.936,-0.703,3083
8.940,-0.193,3083
8.944,0.338,3083
8.948,0.818,3083
8.952,1.170,3083
8.956,1.357,3083
8.960,1.137,3108
8.964,0.412,3108
8.968,-0.068,3108
8.972,-0.625,3108
8.976,-1.123,3108
8.980,-1.583,3108
8.984,-1.938,3108
8.988,-2.123,3108
8.992,-2.140,3108
8.996,-1.988,3108
9.000,-1.677,3142
9.004,-1.222,3142
9.008,-0.735,3142
9.012,-0.220,3142
9.016,0.300,3142
9.020,0.777,3142
9.024,1.137,3142
9.028,1.333,3142
9.032,1.360,3142
9.036,1.198,3142
9.040,0.375,3120
9.044,-0.562,3120
9.048,-1.075,3120
9.052,-1.552,3120
9.056,-1.923,3120
9.060,-2.105,3120
9.064,-2.127,3120
9.068,-1.978,3120
9.072,-1.663,3096
9.076,-1.228,3096
9.080,-0.740,3096
9.084,-0.230,3096
9.088,0.302,3096
9.092,0.767,3096
9.096,1.117,3096
9.100,1.327,3096
9.104,1.353,3096
9.108,1.195,3096
9.112,0.873,3123
9.116,0.430,3123
9.120,-0.657,3123
9.124,-1.093,3123
9.128,-1.562,3123
9.132,-1.905,3123
9.136,-2.098,3123
9.140,-2.123,3123
9.144,-1.972,3123
9.148,-1.657,3106
9.152,-1.218,3106
9.156,-0.743,3106
9.160,-0.230,3106
9.164,0.278,3106
9.168,0.752,3106
9.172,1.107,3106
9.176,1.308,3106
9.180,1.337,3106
9.184,1.185,3106
9.188,0.873,3119
9.192,0.435,3119
9.196,-0.048,3119
9.200,-1.170,3119
9.204,-1.657,3119
9.208,-1.968,3119
9.212,-2.143,3119
9.216,-2.167,3119
9.220,-2.010,3119
9.224,-1.692,3134
9.228,-1.232,3134
9.232,-0.735,3134
9.236,-0.225,3134
9.240,0.300,3134
9.244,0.782,3134
9.248,1.153,3134
9.252,1.353,3134
9.256,1.390,3134
9.260,1.232,3134
9.264,0.915,3145
9.268,0.480,3145
9.272,-0.010,3145
9.276,-0.522,3145
9.280,-1.605,3145
9.284,-1.900,3145
9.288,-2.087,3145
9.292,-2.125,3145
9.296,-1.978,3145
9.300,-1.667,3120
9.304,-1.222,3120
9.308,-0.748,3120
9.312,-0.253,3120
9.316,0.268,3120
9.320,0.752,3120
9.324,1.117,3120
9.328,1.327,3120
9.332,1.370,3120
9.336,1.210,3120
9.340,0.902,3122
9.344,0.460,3122
9.348,-0.020,3122
9.352,-0.535,3122
9.356,-1.052,3122
9.360,-1.938,3122
9.364,-2.107,3122
9.368,-2.112,3122
9.372,-1.962,3122
9.376,-1.647,3128
9.380,-1.205,3128
9.384,-0.713,3128
9.388,-0.212,3128
9.392,0.307,3128
9.396,0.775,3128
9.400,1.140,3128
9.404,1.337,3128
9.408,1.370,3128
9.412,1.212,3128
9.416,0.902,3146
9.420,0.468,3146
9.424,-0.022,3146
9.428,-0.537,3146
9.432,-1.067,3146
9.436,-1.542,3146
9.440,-2.138,3146
9.444,-2.163,3146
9.448,-2.018,3146
9.452,-1.702,3132
9.456,-1.292,3132
9.460,-0.807,3132
9.464,-0.302,3132
9.468,0.217,3132
9.472,0.700,3132
9.476,1.077,3132
9.480,1.270,3132
9.484,1.333,3132
9.488,1.188,3132
9.492,0.897,3112
9.496,0.458,3112
9.500,-0.018,3112
9.504,-0.520,3112
9.508,-1.045,3112
9.512,-1.525,3112
9.516,-1.887,3112
9.520,-2.123,3112
9.524,-1.982,3112
9.528,-1.685,3132
9.532,-1.238,3132
9.536,-0.752,3132
9.540,-0.247,3132
9.544,0.273,3132
9.548,0.752,3132
9.552,1.137,3132
9.556,1.347,3132
9.560,1.393,3132
9.564,1.248,3132
9.568,0.943,3141
9.572,0.512,3141
9.576,0.037,3141
9.580,-0.492,3141
9.584,-1.018,3141
9.588,-1.505,3141
9.592,-1.875,3141
9.596,-2.087,3141
9.600,-1.942,3141
9.604,-1.675,3137
9.608,-1.235,3137
9.612,-0.750,3137
9.616,-0.207,3137
9.620,0.265,3137
9.624,0.745,3137
9.628,1.110,3137
9.632,1.333,3137
9.636,1.370,3137
9.640,1.228,3137
9.644,0.927,3141
9.648,0.497,3141
9.652,0.018,3141
9.656,-0.507,3141
9.660,-1.028,3141
9.664,-1.512,3141
9.668,-1.887,3141
9.672,-2.092,3141
9.676,-2.132,3141
9.680,-1.627,3127
9.684,-0.740,3127
9.688,-0.253,3127
9.692,0.263,3127
9.696,0.750,3127
9.700,1.140,3127
9.704,1.373,3127
9.708,1.423,3127
9.712,1.278,3127
9.716,0.983,3112
9.720,0.540,3112
9.724,0.050,3112
9.728,-0.468,3112
9.732,-1.008,3112
9.736,-1.510,3112
9.740,-1.893,3112
9.744,-2.112,3112
9.748,-2.163,3112
9.752,-2.025,3112
9.756,-1.732,3116
9.760,-0.733,3116
9.764,-0.295,3116
9.768,0.235,3116
9.772,0.733,3116
9.776,1.115,3116
9.780,1.347,3116
9.784,1.405,3116
9.788,1.262,3116
9.792,0.960,3137
9.796,0.535,3137
9.800,0.052,3137
9.804,-0.468,3137
9.808,-1.015,3137
9.812,-1.510,3137
9.816,-1.895,3137
9.820,-2.107,3137
9.824,-2.163,3137
9.828,-2.022,3137
9.832,-1.725,3137
9.836,-1.302,3093
9.840,-0.203,3093
9.844,0.235,3093
9.848,0.718,3093
9.852,1.097,3093
9.856,1.325,3093
9.860,1.370,3093
9.864,1.230,3093
9.868,0.938,3093
9.872,0.510,3120
9.876,0.018,3120
9.880,-0.502,3120
9.884,-1.028,3120
9.888,-1.528,3120
9.892,-1.900,3120
9.896,-2.107,3120
9.900,-2.150,3120
9.904,-2.007,3120
9.908,-1.712,3120
9.912,-1.292,3116
9.916,-0.782,3116
9.920,0.338,3116
9.924,0.740,3116
9.928,1.135,3116
9.932,1.353,3116
9.936,1.397,3116
9.940,1.258,3116
9.944,0.950,3116
9.948,0.537,3093
9.952,0.043,3093
9.956,-0.482,3093
9.960,-1.000,3093
9.964,-1.502,3093
9.968,-1.893,3093
9.972,-2.107,3093
9.976,-2.163,3093
9.980,-2.020,3093
9.984,-1.730,3093
9.988,-1.308,3103
9.992,-0.805,3103
9.996,-0.282,3103
10.000,0.828,3103
10.004,1.147,3103
10.008,1.367,3103
10.012,1.417,3103
10.016,1.292,3103
10.020,0.927,3103
10.024,0.525,3096
10.028,0.055,3096
10.032,-0.448,3096
10.036,-0.978,3096
10.040,-1.472,3096
10.044,-1.855,3096
10.048,-2.067,3096
10.052,-2.132,3096
10.056,-2.010,3096
10.060,-1.728,3096
10.064,-1.310,3107
10.068,-0.812,3107
10.072,-0.302,3107
10.076,0.223,3107
10.080,1.157,3107
10.084,1.340,3107
10.088,1.383,3107
10.092,1.228,3107
10.096,0.973,3107
10.100,0.532,3093
10.104,-0.052,3093
10.108,-0.510,3093
10.112,-0.995,3093
10.116,-1.488,3093
10.120,-1.873,3093
10.124,-2.092,3093
10.128,-2.140,3093
10.132,-2.010,3093
10.136,-1.722,3093
10.140,-1.308,3111
10.144,-0.807,3111
10.148,-0.292,3111
10.152,0.228,3111
10.156,0.713,3111
10.160,1.347,3111
10.164,1.377,3111
10.168,1.212,3111
10.172,0.978,3111
10.176,0.552,3079
10.180,0.030,3079
10.184,-0.448,3079
10.188,-0.983,3079
10.192,-1.482,3079
10.196,-1.867,3079
10.200,-2.098,3079
10.204,-2.152,3079
10.208,-2.033,3079
10.212,-1.762,3079
10.216,-1.335,3103
10.220,-0.828,3103
10.224,-0.323,3103
10.228,0.217,3103
10.232,0.733,3103
10.236,1.100,3103
10.240,1.383,3103
10.244,1.252,3103
10.248,0.983,3103
10.252,0.568,3131
10.256,0.058,3131
10.260,-0.443,3131
10.264,-0.973,3131
10.268,-1.480,3131
10.272,-1.863,3131
10.276,-2.092,3131
10.280,-2.165,3131
10.284,-2.035,3131
10.288,-1.762,3131
10.292,-1.337,3122
10.296,-0.833,3122
10.300,-0.328,3122
10.304,0.207,3122
10.308,0.700,3122
10.312,1.093,3122
10.316,1.325,3122
10.320,1.222,3122
10.324,0.983,3122
10.328,0.557,3135
10.332,0.068,3135
10.336,-0.448,3135
10.340,-0.978,3135
10.344,-1.488,3135
10.348,-1.877,3135
10.352,-2.112,3135
10.356,-2.183,3135
10.360,-2.065,3135
10.364,-1.788,3135
10.368,-1.375,3131
10.372,-0.863,3131
10.376,-0.352,3131
10.380,0.182,3131
10.384,0.682,3131
10.388,1.087,3131
10.392,1.330,3131
10.396,1.393,3131
10.400,0.932,3131
10.404,0.580,3099
10.408,0.087,3099
10.412,-0.422,3099
10.416,-0.965,3099
10.420,-1.472,3099
10.424,-1.867,3099
10.428,-2.103,3099
10.432,-2.172,3099
10.436,-2.058,3099
10.440,-1.778,3099
10.444,-1.357,3111
10.448,-0.860,3111
10.452,-0.362,3111
10.456,0.182,3111
10.460,0.688,3111
10.464,1.087,3111
10.468,1.337,3111
10.472,1.407,3111
10.476,1.298,3111
10.480,0.512,3136
10.484,-0.547,3136
10.488,-0.983,3136
10.492,-1.462,3136
10.496,-1.857,3136
10.500,-2.085,3136
10.504,-2.147,3136
10.508,-2.030,3136
10.512,-1.745,3136
10.516,-1.330,3132
10.520,-0.823,3132
10.524,-0.325,3132
10.528,0.212,3132
10.532,0.708,3132
10.536,1.107,3132
10.540,1.355,3132
10.544,1.427,3132
10.548,1.317,3132
10.552,1.028,3132
10.556,0.613,3140
10.560,-0.507,3140
10.564,-0.932,3140
10.568,-1.440,3140
10.572,-1.830,3140
10.576,-2.062,3140
10.580,-2.135,3140
10.584,-2.022,3140
10.588,-1.745,3140
10.592,-1.337,3129
10.596,-0.843,3129
10.600,-0.340,3129
10.604,0.198,3129
10.608,0.703,3129
10.612,1.103,3129
10.616,1.357,3129
10.620,1.417,3129
10.624,1.310,3129
10.628,1.025,3129
10.632,0.608,3127
10.636,0.098,3127
10.640,-1.028,3127
10.644,-1.448,3127
10.648,-1.843,3127
10.652,-2.092,3127
10.656,-2.147,3127
10.660,-2.045,3127
10.664,-1.775,3127
10.668,-1.353,3119
10.672,-0.858,3119
10.676,-0.352,3119
10.680,0.177,3119
10.684,0.677,3119
10.688,1.073,3119
10.692,1.333,3119
10.696,1.393,3119
10.700,1.298,3119
10.704,1.018,3119
10.708,0.598,3116
10.712,0.102,3116
10.716,-0.407,3116
10.720,-1.522,3116
10.724,-1.847,3116
10.728,-2.083,3116
10.732,-2.163,3116
10.736,-2.058,3116
10.740,-1.790,3116
10.744,-1.370,3105
10.748,-0.863,3105
10.752,-0.362,3105
10.756,0.182,3105
10.760,0.690,3105
10.764,1.097,3105
10.768,1.353,3105
10.772,1.427,3105
10.776,1.335,3105
10.780,1.058,3105
10.784,0.652,3076
10.788,0.147,3076
10.792,-0.360,3076
10.796,-0.890,3076
10.800,-1.867,3076
10.804,-2.087,3076
10.808,-2.143,3076
10.812,-2.042,3076
10.816,-1.775,3076
10.820,-1.367,3128
10.824,-0.870,3128
10.828,-0.367,3128
10.832,0.152,3128
10.836,0.660,3128
10.840,1.058,3128
10.844,1.308,3128
10.848,1.387,3128
10.852,1.270,3128
10.856,1.018,3128
10.860,0.608,3128
10.864,0.128,3113
10.868,-0.393,3113
10.872,-0.925,3113
10.876,-1.423,3113
10.880,-2.098,3113
10.884,-2.143,3113
10.888,-2.047,3113
10.892,-1.772,3113
10.896,-1.353,3113
10.900,-0.860,3113
10.904,-0.338,3113
10.908,0.193,3113
10.912,0.703,3113
10.916,1.115,3113
10.920,1.370,3113
10.924,1.458,3113
10.928,1.347,3113
10.932,1.075,3113
10.936,0.667,3113
10.940,0.182,3134
10.944,-0.352,3134
10.948,-0.887,3134
10.952,-1.405,3134
10.956,-1.817,3134
10.960,-2.143,3134
10.964,-2.053,3134
10.968,-1.785,3134
10.972,-1.383,3134
10.976,-0.895,3119
10.980,-0.380,3119
10.984,0.142,3119
10.988,0.652,3119
10.992,1.060,3119
10.996,1.323,3119
11.000,1.413,3119
11.004,1.335,3119
11.008,1.038,3119
11.012,0.657,3119
11.016,0.172,3109
11.020,-0.365,3109
11.024,-0.887,3109
11.028,-1.393,3109
11.032,-1.827,3109
11.036,-2.062,3109
11.040,-2.027,3109
11.044,-1.808,3109
11.048,-1.403,3109
11.052,-0.902,3108
11.056,0.210,3108
11.060,0.670,3108
11.064,1.087,3108
11.068,1.353,3108
11.072,1.438,3108
11.076,1.343,3108
11.080,1.067,3108
11.084,0.660,3108
11.088,0.168,3086
11.092,-0.367,3086
11.096,-0.897,3086
11.100,-1.407,3086
11.104,-1.823,3086
11.108,-2.062,3086
11.112,-2.152,3086
11.116,-2.060,3086
11.120,-1.333,3123
11.124,-0.405,3123
11.128,0.128,3123
11.132,0.627,3123
11.136,1.048,3123
11.140,1.325,3123
11.144,1.413,3123
11.148,1.333,3123
11.152,1.052,3123
11.156,0.657,3123
11.160,0.172,3123
11.164,-0.362,3123
11.168,-0.890,3123
11.172,-1.395,3123
11.176,-1.817,3123
11.180,-2.067,3123
11.184,-2.163,3123
11.188,-2.085,3123
11.192,-1.817,3123
11.196,-1.413,3123
11.200,-0.328,3122
11.204,0.657,3122
11.208,1.055,3122
11.212,1.323,3122
11.216,1.417,3122
11.220,1.340,3122
11.224,1.065,3122
11.228,0.667,3122
11.232,0.177,3120
11.236,-0.362,3120
11.240,-0.890,3120
11.244,-1.407,3120
11.248,-1.825,3120
11.252,-2.083,3120
11.256,-2.170,3120
11.260,-2.085,3120
11.264,-1.823,3120
11.268,-1.415,3120
11.272,-0.915,3118
11.276,-0.403,3118
11.280,0.713,3118
11.284,1.052,3118
11.288,1.330,3118
11.292,1.420,3118
11.296,1.343,3118
11.300,1.077,3118
11.304,0.688,3118
11.308,0.210,3121
11.312,-0.325,3121
11.316,-0.853,3121
11.320,-1.373,3121
11.324,-1.800,3121
11.328,-2.053,3121
11.332,-2.147,3121
11.336,-2.083,3121
11.340,-1.817,3121
11.344,-1.413,3121
11.348,-0.927,3135
11.352,-0.407,3135
11.356,0.113,3135
11.360,1.095,3135
11.364,1.310,3135
11.368,1.413,3135
11.372,1.333,3135
11.376,1.073,3135
11.380,0.688,3135
11.384,0.190,3130
11.388,-0.302,3130
11.392,-0.823,3130
11.396,-1.337,3130
11.400,-1.768,3130
11.404,-2.027,3130
11.408,-2.127,3130
11.412,-2.047,3130
11.416,-1.802,3130
11.420,-1.407,3130
11.424,-0.912,3136
11.428,-0.410,3136
11.432,0.117,3136
11.436,0.627,3136
11.440,1.347,3136
11.444,1.417,3136
11.448,1.340,3136
11.452,1.077,3136
11.456,0.685,3136
11.460,0.198,3140
11.464,-0.330,3140
11.468,-0.860,3140
11.472,-1.370,3140
11.476,-1.788,3140
11.480,-2.053,3140
11.484,-2.163,3140
11.488,-2.087,3140
11.492,-1.827,3140
11.496,-1.448,3140
11.500,-0.945,3120
11.504,-0.443,3120
11.508,0.098,3120
11.512,0.598,3120
11.516,1.028,3120
11.520,1.413,3120
11.524,1.335,3120
11.528,1.067,3120
11.532,0.667,3120
11.536,0.188,3129
11.540,-0.340,3129
11.544,-0.863,3129
11.548,-1.375,3129
11.552,-1.802,3129
11.556,-2.055,3129
11.560,-2.147,3129
11.564,-2.058,3129
11.568,-1.808,3129
11.572,-1.407,3129
11.576,-0.912,3131
11.580,-0.407,3131
11.584,0.128,3131
11.588,0.627,3131
11.592,1.055,3131
11.596,1.333,3131
11.600,1.323,3131
11.604,1.093,3131
11.608,0.700,3131
11.612,0.223,3127
11.616,-0.302,3127
11.620,-0.843,3127
11.624,-1.343,3127
11.628,-1.778,3127
11.632,-2.033,3127
11.636,-2.145,3127
11.640,-2.087,3127
11.644,-1.835,3127
11.648,-1.452,3127
11.652,-0.970,3137
11.656,-0.453,3137
11.660,0.062,3137
11.664,0.578,3137
11.668,1.008,3137
11.672,1.295,3137
11.676,1.395,3137
11.680,1.008,3137
11.684,0.662,3137
11.688,0.198,3119
11.692,-0.340,3119
11.696,-0.853,3119
11.700,-1.367,3119
11.704,-1.802,3119
11.708,-2.083,3119
11.712,-2.167,3119
11.716,-2.107,3119
11.720,-1.867,3119
11.724,-1.468,3119
11.728,-0.993,3139
11.732,-0.487,3139
11.736,0.043,3139
11.740,0.550,3139
11.744,0.993,3139
11.748,1.262,3139
11.752,1.387,3139
11.756,1.335,3139
11.760,0.625,3139
11.764,0.207,3122
11.768,-0.297,3122
11.772,-0.892,3122
11.776,-1.340,3122
11.780,-1.768,3122
11.784,-2.040,3122
11.788,-2.145,3122
11.792,-2.090,3122
11.796,-1.823,3122
11.800,-1.448,3122
11.804,-0.978,3142
11.808,-0.450,3142
11.812,0.077,3142
11.816,0.593,3142
11.820,1.030,3142
11.824,1.323,3142
11.828,1.427,3142
11.832,1.357,3142
11.836,1.103,3142
11.840,0.172,3084
11.844,-0.807,3084
11.848,-1.302,3084
11.852,-1.728,3084
11.856,-2.007,3084
11.860,-2.112,3084
11.864,-2.058,3084
11.868,-1.823,3084
11.872,-1.425,3084
11.876,-0.943,3084
11.880,-0.432,3127
11.884,0.107,3127
11.888,0.608,3127
11.892,1.038,3127
11.896,1.323,3127
11.900,1.425,3127
11.904,1.357,3127
11.908,1.107,3127
11.912,0.720,3127
11.916,0.258,3127
11.920,-0.863,3118
11.924,-1.725,3118
11.928,-1.992,3118
11.932,-2.103,3118
11.936,-2.047,3118
11.940,-1.812,3118
11.944,-1.417,3118
11.948,-0.943,3118
11.952,-0.448,3127
11.956,0.095,3127
11.960,0.588,3127
11.964,1.025,3127
11.968,1.308,3127
11.972,1.423,3127
11.976,1.360,3127
11.980,1.113,3127
11.984,0.728,3127
11.988,0.247,3127
11.992,-0.263,3113
11.996,-0.818,3113
12.000,-1.820,3113
12.004,-2.045,3113
12.008,-2.152,3113
12.012,-2.105,3113
12.016,-1.860,3113
12.020,-1.472,3113
12.024,-0.990,3113
12.028,-0.485,3108
12.032,0.077,3108
12.036,0.588,3108
12.040,1.032,3108
12.044,1.337,3108
12.048,1.458,3108
12.052,1.397,3108
12.056,1.153,3108
12.060,0.770,3108
12.064,0.278,3108
12.068,-0.228,3106
12.072,-0.777,3106
12.076,-1.308,3106
12.080,-2.062,3106
12.084,-2.152,3106
12.088,-2.098,3106
12.092,-1.863,3106
12.096,-1.485,3106
12.100,-1.012,3106
12.104,-0.507,3097
12.108,0.052,3097
12.112,0.557,3097
12.116,0.998,3097
12.120,1.298,3097
12.124,1.413,3097
12.128,1.357,3097
12.132,1.117,3097
12.136,0.745,3097
12.140,0.270,3097
12.144,-0.242,3129
12.148,-0.780,3129
12.152,-1.302,3129
12.156,-1.740,3129
12.160,-2.150,3129
12.164,-2.103,3129
12.168,-1.867,3129
12.172,-1.488,3129
12.176,-1.012,3129
12.180,-0.492,3115
12.184,0.048,3115
12.188,0.550,3115
12.192,1.008,3115
12.196,1.302,3115
12.200,1.417,3115
12.204,1.367,3115
12.208,1.117,3115
12.212,0.743,3115
12.216,0.270,3115
12.220,-0.242,3119
12.224,-0.780,3119
12.228,-1.302,3119
12.232,-1.738,3119
12.236,-2.022,3119
12.240,-2.083,3119
12.244,-1.887,3119
12.248,-1.505,3119
12.252,-1.042,3119
12.256,-0.532,3108
12.260,0.015,3108
12.264,0.515,3108
12.268,0.953,3108
12.272,1.258,3108
12.276,1.407,3108
12.280,1.353,3108
12.284,1.130,3108
12.288,0.748,3108
12.292,0.278,3108
12.296,-0.223,3118
12.300,-0.752,3118
12.304,-1.252,3118
12.308,-1.700,3118
12.312,-1.992,3118
12.316,-2.130,3118
12.320,-1.812,3118
12.324,-1.488,3118
12.328,-1.010,3118
12.332,-0.502,3119
12.336,0.050,3119
12.340,0.552,3119
12.344,0.998,3119
12.348,1.308,3119
12.352,1.433,3119
12.356,1.383,3119
12.360,1.140,3119
12.364,0.752,3119
12.368,0.273,3119
12.372,-0.242,3132
12.376,-0.787,3132
12.380,-1.305,3132
12.384,-1.742,3132
12.388,-2.047,3132
12.392,-2.172,3132
12.396,-2.130,3132
12.400,-1.458,3132
12.404,-0.973,3132
12.408,-0.505,3131
12.412,0.072,3131
12.416,0.540,3131
12.420,0.948,3131
12.424,1.252,3131
12.428,1.393,3131
12.432,1.355,3131
12.436,1.137,3131
12.440,0.757,3131
12.444,0.285,3131
12.448,-0.225,3097
12.452,-0.767,3097
12.456,-1.270,3097
12.460,-1.728,3097
12.464,-2.022,3097
12.468,-2.145,3097
12.472,-2.100,3097
12.476,-1.863,3097
12.480,-0.930,3097
12.484,-0.465,3134
12.488,0.060,3134
12.492,0.568,3134
12.496,1.012,3134
12.500,1.327,3134
12.504,1.455,3134
12.508,1.407,3134
12.512,1.177,3134
12.516,0.787,3134
12.520,0.307,3134
12.524,-0.203,3123
12.528,-0.740,3123
12.532,-1.245,3123
12.536,-1.698,3123
12.540,-2.005,3123
12.544,-2.138,3123
12.548,-2.095,3123
12.552,-1.887,3123
12.556,-1.525,3123
12.560,-0.463,3150
12.564,0.797,3150
12.568,1.308,3150
12.572,1.417,3150
12.576,1.383,3150
12.580,1.147,3150
12.584,0.782,3150
12.588,0.312,3150
12.592,-0.188,3138
12.596,-0.733,3138
12.600,-1.235,3138
12.604,-1.692,3138
12.608,-1.988,3138
12.612,-2.125,3138
12.616,-2.092,3138
12.620,-1.870,3138
12.624,-1.512,3138
12.628,-1.048,3138
12.632,-0.547,3131
12.636,-0.033,3131
12.640,0.998,3131
12.644,1.238,3131
12.648,1.383,3131
12.652,1.353,3131
12.656,1.133,3131
12.660,0.757,3131
12.664,0.302,3131
12.668,-0.203,3130
12.672,-0.767,3130
12.676,-1.268,3130
12.680,-1.730,3130
12.684,-2.027,3130
12.688,-2.167,3130
12.692,-2.132,3130
12.696,-1.905,3130
12.700,-1.538,3130
12.704,-1.060,3130
12.708,-0.547,3123
12.712,-0.018,3123
12.716,0.507,3123
12.720,1.323,3123
12.724,1.423,3123
12.728,1.387,3123
12.732,1.170,3123
12.736,0.785,3123
12.740,0.318,3123
12.744,-0.193,3121
12.748,-0.748,3121
12.752,-1.252,3121
12.756,-1.700,3121
12.760,-2.015,3121
12.764,-2.147,3121
12.768,-2.120,3121
12.772,-1.897,3121
12.776,-1.530,3121
12.780,-1.052,3121
12.784,-0.540,3131
12.788,-0.022,3131
12.792,0.502,3131
12.796,0.948,3131
12.800,1.407,3131
12.804,1.353,3131
12.808,1.147,3131
12.812,0.777,3131
12.816,0.312,3131
12.820,-0.193,3115
12.824,-0.743,3115
12.828,-1.248,3115
12.832,-1.700,3115
12.836,-2.018,3115
12.840,-2.143,3115
12.844,-2.110,3115
12.848,-1.900,3115
12.852,-1.538,3115
12.856,-1.058,3115
12.860,-0.547,3114
12.864,-0.018,3114
12.868,0.510,3114
12.872,0.973,3114
12.876,1.272,3114
12.880,1.360,3114
12.884,1.155,3114
12.888,0.790,3114
12.892,0.338,3114
12.896,-0.185,3114
12.900,-0.713,3116
12.904,-1.252,3116
12.908,-1.698,3116
12.912,-2.018,3116
12.916,-2.150,3116
12.920,-2.130,3116
12.924,-1.925,3116
12.928,-1.548,3116
12.932,-1.048,3116
12.936,-0.573,3116
12.940,-0.050,3122
12.944,0.480,3122
12.948,0.948,3122
12.952,1.268,3122
12.956,1.427,3122
12.960,1.143,3122
12.964,0.797,3122
12.968,0.365,3122
12.972,-0.150,3122
12.976,-0.693,3118
12.980,-1.220,3118
12.984,-1.673,3118
12.988,-1.985,3118
12.992,-2.127,3118
12.996,-2.095,3118
13.000,-1.883,3118
13.004,-1.532,3118
13.008,-1.052,3118
13.012,-0.562,3118
13.016,-0.030,3118
13.020,0.505,3118
13.024,0.943,3118
13.028,1.258,3118
13.032,1.410,3118
13.036,1.380,3118
13.040,0.730,3118
13.044,0.312,3118
13.048,-0.177,3118
13.052,-0.708,3100
13.056,-1.238,3100
13.060,-1.695,3100
13.064,-2.007,3100
13.068,-2.150,3100
13.072,-2.127,3100
13.076,-1.923,3100
13.080,-1.562,3100
13.084,-1.095,3100
13.088,-0.593,3100
13.092,-0.087,3129
13.096,0.463,3129
13.100,0.907,3129
13.104,1.232,3129
13.108,1.393,3129
13.112,1.383,3129
13.116,1.173,3129
13.120,0.268,3129
13.124,-0.172,3129
13.128,-0.705,3112
13.132,-1.232,3112
13.136,-1.698,3112
13.140,-2.013,3112
13.144,-2.152,3112
13.148,-2.127,3112
13.152,-1.925,3112
13.156,-1.565,3112
13.160,-1.093,3112
13.164,-0.588,3112
13.168,-0.070,3121
13.172,0.458,3121
13.176,0.912,3121
13.180,1.230,3121
13.184,1.397,3121
13.188,1.393,3121
13.192,1.190,3121
13.196,0.838,3121
13.200,-0.210,3126
13.204,-1.208,3126
13.208,-1.647,3126
13.212,-1.968,3126
13.216,-2.123,3126
13.220,-2.103,3126
13.224,-1.897,3126
13.228,-1.542,3126
13.232,-1.077,3126
13.236,-0.570,3126
13.240,-0.050,3128
13.244,0.475,3128
13.248,0.932,3128
13.252,1.258,3128
13.256,1.410,3128
13.260,1.393,3128
13.264,1.183,3128
13.268,0.835,3128
13.272,0.367,3128
13.276,-0.138,3128
13.280,-1.288,3117
13.284,-1.992,3117
13.288,-2.143,3117
13.292,-2.132,3117
13.296,-1.933,3117
13.300,-1.570,3117
13.304,-1.097,3117
13.308,-0.590,3117
13.312,-0.035,3126
13.316,0.468,3126
13.320,0.932,3126
13.324,1.260,3126
13.328,1.427,3126
13.332,1.417,3126
13.336,1.198,3126
13.340,0.858,3126
13.344,0.398,3126
13.348,-0.113,3126
13.352,-0.652,3118
13.356,-1.185,3118
13.360,-2.013,3118
13.364,-2.132,3118
13.368,-2.123,3118
13.372,-1.927,3118
13.376,-1.575,3118
13.380,-1.103,3118
13.384,-0.603,3118
13.388,-0.072,3127
13.392,0.460,3127
13.396,0.917,3127
13.400,1.252,3127
13.404,1.420,3127
13.408,1.417,3127
13.412,1.218,3127
13.416,0.863,3127
13.420,0.400,3127
13.424,-0.102,3127
13.428,-0.645,3138
13.432,-1.183,3138
13.436,-1.647,3138
13.440,-2.145,3138
13.444,-2.132,3138
13.448,-1.948,3138
13.452,-1.613,3138
13.456,-1.147,3138
13.460,-0.650,3138
13.464,-0.122,3140
13.468,0.407,3140
13.472,0.860,3140
13.476,1.192,3140
13.480,1.373,3140
13.484,1.377,3140
13.488,1.183,3140
13.492,0.848,3140
13.496,0.390,3140
13.500,-0.110,3140
13.504,-0.642,3136
13.508,-1.173,3136
13.512,-1.627,3136
13.516,-1.968,3136
13.520,-2.098,3136
13.524,-1.933,3136
13.528,-1.607,3136
13.532,-1.140,3136
13.536,-0.625,3136
13.540,-0.107,3130
13.544,0.425,3130
13.548,0.890,3130
13.552,1.228,3130
13.556,1.407,3130
13.560,1.397,3130
13.564,1.198,3130
13.568,0.868,3130
13.572,0.412,3130
13.576,-0.102,3130
13.580,-0.642,3122
13.584,-1.185,3122
13.588,-1.655,3122
13.592,-1.988,3122
13.596,-2.147,3122
13.600,-1.923,3122
13.604,-1.625,3122
13.608,-1.163,3122
13.612,-0.662,3122
13.616,-0.128,3124
13.620,0.398,3124
13.624,0.868,3124
13.628,1.210,3124
13.632,1.387,3124
13.636,1.387,3124
13.640,1.183,3124
13.644,0.845,3124
13.648,0.385,3124
13.652,-0.117,3124
13.656,-0.650,3130
13.660,-1.177,3130
13.664,-1.650,3130
13.668,-1.988,3130
13.672,-2.147,3130
13.676,-2.152,3130
13.680,-1.535,3130
13.684,-1.127,3130
13.688,-0.645,3130
13.692,-0.102,3122
13.696,0.417,3122
13.700,0.935,3122
13.704,1.228,3122
13.708,1.393,3122
13.712,1.393,3122
13.716,1.208,3122
13.720,0.863,3122
13.724,0.385,3122
13.728,-0.087,3122
13.732,-0.593,3114
13.736,-1.137,3114
13.740,-1.603,3114
13.744,-1.933,3114
13.748,-2.090,3114
13.752,-2.092,3114
13.756,-1.903,3114
13.760,-1.032,3114
13.764,-0.603,3114
13.768,-0.087,3120
13.772,0.440,3120
13.776,0.902,3120
13.780,1.258,3120
13.784,1.427,3120
13.788,1.427,3120
13.792,1.238,3120
13.796,0.902,3120
13.800,0.450,3120
13.804,-0.058,3120
13.808,-0.583,3110
13.812,-1.133,3110
13.816,-1.613,3110
13.820,-1.952,3110
13.824,-2.135,3110
13.828,-2.143,3110
13.832,-1.978,3110
13.836,-1.643,3110
13.840,-0.590,3110
13.844,-0.163,3119
13.848,0.370,3119
13.852,0.833,3119
13.856,1.183,3119
13.860,1.373,3119
13.864,1.387,3119
13.868,1.208,3119
13.872,0.865,3119
13.876,0.417,3119
13.880,-0.077,3119
13.884,-0.603,3119
13.888,-1.133,3132
13.892,-1.613,3132
13.896,-1.945,3132
13.900,-2.110,3132
13.904,-2.112,3132
13.908,-1.938,3132
13.912,-1.603,3132
13.916,-1.137,3132
13.920,0.022,3115
13.924,0.897,3115
13.928,1.232,3115
13.932,1.395,3115
13.936,1.397,3115
13.940,1.212,3115
13.944,0.875,3115
13.948,0.420,3115
13.952,-0.087,3115
13.956,-0.618,3115
13.960,-1.150,3114
13.964,-1.643,3114
13.968,-1.982,3114
13.972,-2.147,3114
13.976,-2.160,3114
13.980,-1.978,3114
13.984,-1.645,3114
13.988,-1.177,3114
13.992,-0.672,3114
13.996,-0.142,3114
14.000,0.943,3121
14.004,1.415,3121
14.008,1.425,3121
14.012,1.238,3121
14.016,0.900,3121
14.020,0.448,3121
14.024,-0.062,3121
14.028,-0.595,3121
14.032,-1.133,3108
14.036,-1.623,3108
14.040,-1.972,3108
14.044,-2.147,3108
14.048,-2.167,3108
14.052,-1.990,3108
14.056,-1.663,3108
14.060,-1.202,3108
14.064,-0.700,3108
14.068,-0.177,3108
14.072,0.352,3106
14.076,0.848,3106
14.080,1.395,3106
14.084,1.395,3106
14.088,1.222,3106
14.092,0.897,3106
14.096,0.448,3106
14.100,-0.052,3106
14.104,-0.580,3106
14.108,-1.123,3102
14.112,-1.600,3102
14.116,-1.952,3102
14.120,-2.127,3102
14.124,-2.138,3102
14.128,-1.970,3102
14.132,-1.640,3102
14.136,-1.180,3102
14.140,-0.672,3102
14.144,-0.142,3102
14.148,0.378,3114
14.152,0.860,3114
14.156,1.210,3114
14.160,1.393,3114
14.164,1.228,3114
14.168,0.902,3114
14.172,0.450,3114
14.176,-0.058,3114
14.180,-0.585,3114
14.184,-1.113,3116
14.188,-1.607,3116
14.192,-1.942,3116
14.196,-2.120,3116
14.200,-2.135,3116
14.204,-1.972,3116
14.208,-1.633,3116
14.212,-1.177,3116
14.216,-0.680,3116
14.220,-0.163,3116
14.224,0.378,3125
14.228,0.858,3125
14.232,1.208,3125
14.236,1.393,3125
14.240,1.192,3125
14.244,0.873,3125
14.248,0.448,3125
14.252,-0.060,3125
14.256,-0.588,3125
14.260,-1.127,3117
14.264,-1.625,3117
14.268,-1.975,3117
14.272,-2.150,3117
14.276,-2.170,3117
14.280,-2.007,3117
14.284,-1.683,3117
14.288,-1.218,3117
14.292,-0.713,3117
14.296,-0.190,3117
14.300,0.347,3127
14.304,0.838,3127
14.308,1.190,3127
14.312,1.393,3127
14.316,1.425,3127
14.320,0.860,3127
14.324,0.468,3127
14.328,-0.040,3127
14.332,-0.560,3127
14.336,-1.093,3111
14.340,-1.600,3111
14.344,-1.948,3111
14.348,-2.132,3111
14.352,-2.172,3111
14.356,-2.010,3111
14.360,-1.692,3111
14.364,-1.238,3111
14.368,-0.743,3111
14.372,-0.225,3111
14.376,0.302,3127
14.380,0.797,3127
14.384,1.163,3127
14.388,1.353,3127
14.392,1.387,3127
14.396,1.218,3127
14.400,0.372,3127
14.404,-0.133,3127
14.408,-0.578,3127
14.412,-1.095,3134
14.416,-1.580,3134
14.420,-1.935,3134
14.424,-2.112,3134
14.428,-2.138,3134
14.432,-1.982,3134
14.436,-1.657,3134
14.440,-1.202,3134
14.444,-0.703,3134
14.448,-0.188,3134
14.452,0.347,3134
14.456,0.825,3134
14.460,1.183,3134
14.464,1.383,3134
14.468,1.407,3134
14.472,1.232,3134
14.476,0.895,3134
14.480,-0.128,3134
14.484,-0.578,3134
14.488,-1.073,3127
14.492,-1.567,3127
14.496,-1.923,3127
14.500,-2.090,3127
14.504,-2.112,3127
14.508,-1.952,3127
14.512,-1.647,3127
14.516,-1.212,3127
14.520,-0.715,3127
14.524,-0.207,3127
14.528,0.312,3152
14.532,0.795,3152
14.536,1.167,3152
14.540,1.370,3152
14.544,1.397,3152
14.548,1.240,3152
14.552,0.920,3152
14.556,0.477,3152
14.560,-0.613,3152
14.564,-1.083,3143
14.568,-1.542,3143
14.572,-1.895,3143
14.576,-2.090,3143
14.580,-2.112,3143
14.584,-1.960,3143
14.588,-1.645,3143
14.592,-1.192,3143
14.596,-0.700,3143
14.600,-0.188,3143
14.604,0.343,3101
14.608,0.820,3101
14.612,1.167,3101
14.616,1.357,3101
14.620,1.383,3101
14.624,1.218,3101
14.628,0.900,3101
14.632,0.460,3101
14.636,-0.043,3101
14.640,-1.177,3118
14.644,-1.950,3118
14.648,-2.138,3118
14.652,-2.165,3118
14.656,-2.007,3118
14.660,-1.692,3118
14.664,-1.232,3118
14.668,-0.738,3118
14.672,-0.212,3118
14.676,0.333,3139
14.680,0.830,3139
14.684,1.198,3139
14.688,1.407,3139
14.692,1.452,3139
14.696,1.298,3139
14.700,0.960,3139
14.704,0.527,3139
14.708,0.028,3139
14.712,-0.522,3139
14.716,-1.058,3135
14.720,-1.992,3135
14.724,-2.147,3135
14.728,-2.180,3135
14.732,-2.013,3135
14.736,-1.692,3135
14.740,-1.262,3135
14.744,-0.765,3135
14.748,-0.230,3135
14.752,0.302,3111
14.756,0.815,3111
14.760,1.180,3111
14.764,1.387,3111
14.768,1.433,3111
14.772,1.265,3111
14.776,0.955,3111
14.780,0.527,3111
14.784,0.028,3111
14.788,-0.507,3111
14.792,-1.048,3121
14.796,-1.550,3121
14.800,-2.143,3121
14.804,-2.165,3121
14.808,-2.027,3121
14.812,-1.698,3121
14.816,-1.288,3121
14.820,-0.772,3121
14.824,-0.253,3121
14.828,0.278,3123
14.832,0.777,3123
14.836,1.147,3123
14.840,1.367,3123
14.844,1.413,3123
14.848,1.268,3123
14.852,0.958,3123
14.856,0.532,3123
14.860,0.048,3123
14.864,-0.512,3123
14.868,-1.022,3098
14.872,-1.538,3098
14.876,-1.900,3098
14.880,-2.143,3098
14.884,-1.675,3098
14.888,-1.270,3098
14.892,-0.772,3098
14.896,-0.242,3098
14.900,0.287,3098
14.904,0.772,3114
14.908,1.147,3114
14.912,1.357,3114
14.916,1.397,3114
14.920,1.258,3114
14.924,0.953,3114
14.928,0.527,3114
14.932,0.037,3114
14.936,-0.492,3114
14.940,-1.012,3114
14.944,-1.508,3109
14.948,-1.883,3109
14.952,-2.087,3109
14.956,-2.127,3109
14.960,-1.613,3109
14.964,-1.230,3109
14.968,-0.738,3109
14.972,-0.223,3109
14.976,0.297,3109
14.980,0.787,3130
14.984,1.173,3130
14.988,1.387,3130
14.992,1.433,3130
14.996,1.302,3130
15.000,0.988,3130
15.004,0.547,3130
15.008,0.048,3130
15.012,-0.487,3130
15.016,-1.030,3130
15.020,-1.535,3108
15.024,-1.927,3108
15.028,-2.127,3108
15.032,-2.175,3108
15.036,-2.027,3108
15.040,-1.208,3108
15.044,-0.777,3108
15.048,-0.270,3108
15.052,0.260,3108
15.056,0.767,3118
15.060,1.163,3118
15.064,1.380,3118
15.068,1.425,3118
15.072,1.272,3118
15.076,0.978,3118
15.080,0.537,3118
15.084,0.052,3118
15.088,-0.492,3118
15.092,-1.028,3118
15.096,-1.528,3111
15.100,-1.930,3111
15.104,-2.127,3111
15.108,-2.163,3111
15.112,-2.010,3111
15.116,-1.702,3111
15.120,-0.670,3111
15.124,-0.242,3111
15.128,0.287,3111
15.132,0.777,3111
15.136,1.163,3111
15.140,1.377,3111
15.144,1.427,3111
15.148,1.302,3111
15.152,0.993,3111
15.156,0.568,3111
15.160,0.065,3111
15.164,-0.455,3111
15.168,-1.000,3111
15.172,-1.502,3113
15.176,-1.895,3113
15.180,-2.112,3113
15.184,-2.170,3113
15.188,-2.035,3113
15.192,-1.735,3113
15.196,-1.308,3113
15.200,-0.203,3113
15.204,0.242,3113
15.208,0.733,3132
15.212,1.133,3132
15.216,1.353,3132
15.220,1.397,3132
15.224,1.262,3132
15.228,0.958,3132
15.232,0.542,3132
15.236,0.058,3132
15.240,-0.463,3132
15.244,-1.010,3132
15.248,-1.528,3114
15.252,-1.890,3114
15.256,-2.103,3114
15.260,-2.152,3114
15.264,-2.020,3114
15.268,-1.722,3114
15.272,-1.288,3114
15.276,-0.807,3114
15.280,0.318,3114
15.284,0.733,3117
15.288,1.133,3117
15.292,1.355,3117
15.296,1.415,3117
15.300,1.272,3117
15.304,0.983,3117
15.308,0.547,3117
15.312,0.058,3117
15.316,-0.482,3117
15.320,-1.025,3117
15.324,-1.532,3122
15.328,-1.938,3122
15.332,-2.140,3122
15.336,-2.183,3122
15.340,-2.053,3122
15.344,-1.765,3122
15.348,-1.333,3122
15.352,-0.828,3122
15.356,-0.323,3122
15.360,0.777,3136
15.364,1.340,3136
15.368,1.393,3136
15.372,1.252,3136
15.376,0.955,3136
15.380,0.532,3136
15.384,0.045,3136
15.388,-0.485,3136
15.392,-1.012,3136
15.396,-1.520,3109
15.400,-1.903,3109
15.404,-2.132,3109
15.408,-2.188,3109
15.412,-2.083,3109
15.416,-1.788,3109
15.420,-1.363,3109
15.424,-0.855,3109
15.428,-0.338,3109
15.432,0.205,3109
15.436,0.703,3133
15.440,1.353,3133
15.444,1.393,3133
15.448,1.265,3133
15.452,0.983,3133
15.456,0.547,3133
15.460,0.060,3133
15.464,-0.482,3133
15.468,-1.018,3133
15.472,-1.530,3130
15.476,-1.938,3130
15.480,-2.147,3130
15.484,-2.210,3130
15.488,-2.090,3130
15.492,-1.792,3130
15.496,-1.363,3130
15.500,-0.853,3130
15.504,-0.338,3130
15.508,0.195,3130
15.512,0.695,3145
15.516,1.087,3145
15.520,1.383,3145
15.524,1.252,3145
15.528,0.973,3145
15.532,0.547,3145
15.536,0.062,3145
15.540,-0.453,3145
15.544,-0.988,3145
15.548,-1.482,3136
15.552,-1.883,3136
15.556,-2.107,3136
15.560,-2.175,3136
15.564,-2.058,3136
15.568,-1.772,3136
15.572,-1.345,3136
15.576,-0.853,3136
15.580,-0.330,3136
15.584,0.212,3136
15.588,0.713,3132
15.592,1.133,3132
15.596,1.357,3132
15.600,1.268,3132
15.604,0.907,3132
15.608,0.570,3132
15.612,0.087,3132
15.616,-0.448,3132
15.620,-0.980,3132
15.624,-1.482,3127
15.628,-1.893,3127
15.632,-2.127,3127
15.636,-2.175,3127
15.640,-2.053,3127
15.644,-1.782,3127
15.648,-1.367,3127
15.652,-0.863,3127
15.656,-0.352,3127
15.660,0.188,3127
15.664,0.703,3139
15.668,1.093,3139
15.672,1.335,3139
15.676,1.397,3139
15.680,0.932,3139
15.684,0.583,3139
15.688,0.098,3139
15.692,-0.415,3139
15.696,-0.938,3139
15.700,-1.448,3137
15.704,-1.855,3137
15.708,-2.087,3137
15.712,-2.147,3137
15.716,-2.033,3137
15.720,-1.762,3137
15.724,-1.350,3137
15.728,-0.855,3137
15.732,-0.343,3137
15.736,0.195,3137
15.740,0.700,3126
15.744,1.097,3126
15.748,1.340,3126
15.752,1.413,3126
15.756,1.308,3126
15.760,0.517,3126
15.764,0.113,3126
15.768,-0.407,3126
15.772,-0.943,3126
15.776,-1.460,3132
15.780,-1.867,3132
15.784,-2.103,3132
15.788,-2.170,3132
15.792,-2.055,3132
15.796,-1.775,3132
15.800,-1.363,3132
15.804,-0.858,3132
15.808,-0.347,3132
15.812,0.198,3132
15.816,0.703,3126
15.820,1.107,3126
15.824,1.353,3126
15.828,1.425,3126
15.832,1.308,3126
15.836,1.022,3126
15.840,-0.005,3126
15.844,-0.443,3126
15.848,-0.963,3126
15.852,-1.462,3116
15.856,-1.873,3116
15.860,-2.107,3116
15.864,-2.175,3116
15.868,-2.062,3116
15.872,-1.788,3116
15.876,-1.373,3116
15.880,-0.868,3116
15.884,-0.347,3116
15.888,0.193,3116
15.892,0.698,3119
15.896,1.097,3119
15.900,1.343,3119
15.904,1.415,3119
15.908,1.300,3119
15.912,1.008,3119
15.916,0.588,3119
15.920,-0.522,3119
15.924,-0.953,3119
15.928,-1.458,3119
15.932,-1.863,3114
15.936,-2.107,3114
15.940,-2.175,3114
15.944,-2.060,3114
15.948,-1.788,3114
15.952,-1.373,3114
15.956,-0.868,3114
15.960,-0.365,3114
15.964,0.182,3114
15.968,0.690,3114
15.972,1.093,3111
15.976,1.353,3111
15.980,1.417,3111
15.984,1.308,3111
15.988,1.022,3111
15.992,0.608,3111
15.996,0.113,3111
16.000,-1.028,3111
16.004,-1.452,3111
16.008,-1.847,3102
16.012,-2.087,3102
16.016,-2.147,3102
16.020,-2.033,3102
16.024,-1.740,3102
16.028,-1.337,3102
16.032,-0.853,3102
16.036,-0.343,3102
16.040,0.207,3102
16.044,0.700,3126
16.048,1.375,3126
16.052,1.393,3126
16.056,1.028,3126
16.060,0.625,3126
16.064,0.133,3126
16.068,-0.383,3126
16.072,-0.917,3126
16.076,-1.448,3126
16.080,-2.145,3124
16.084,-2.107,3124
16.088,-1.762,3124
16.092,-1.373,3124
16.096,-0.853,3124
16.100,-0.383,3124
16.104,0.210,3124
16.108,0.655,3124
16.112,1.062,3112
16.116,1.330,3112
16.120,1.413,3112
16.124,1.317,3112
16.128,1.038,3112
16.132,0.627,3112
16.136,0.147,3112
16.140,-0.378,3112
16.144,-0.907,3112
16.148,-1.423,3112
16.152,-1.843,3114
16.156,-2.092,3114
16.160,-2.027,3114
16.164,-1.805,3114
16.168,-1.387,3114
16.172,-0.900,3114
16.176,-0.383,3114
16.180,0.142,3114
16.184,0.657,3114
16.188,1.058,3128
16.192,1.323,3128
16.196,1.390,3128
16.200,1.298,3128
16.204,1.008,3128
16.208,0.593,3128
16.212,0.113,3128
16.216,-0.393,3128
16.220,-0.927,3128
16.224,-1.423,3128
16.228,-1.833,3119
16.232,-2.092,3119
16.236,-2.152,3119
16.240,-1.715,3119
16.244,-1.367,3119
16.248,-0.863,3119
16.252,-0.365,3119
16.256,0.177,3119
16.260,0.670,3119
16.264,1.075,3111
16.268,1.337,3111
16.272,1.417,3111
16.276,1.323,3111
16.280,1.038,3111
16.284,0.627,3111
16.288,0.147,3111
16.292,-0.372,3111
16.296,-0.907,3111
16.300,-1.427,3111
16.304,-1.845,3115
16.308,-2.103,3115
16.312,-2.185,3115
16.316,-2.095,3115
16.320,-1.333,3115
16.324,-0.910,3115
16.328,-0.393,3115
16.332,0.142,3115
16.336,0.667,3115
16.340,1.077,3081
16.344,1.355,3081
16.348,1.452,3081
16.352,1.353,3081
16.356,1.077,3081
16.360,0.667,3081
16.364,0.177,3081
16.368,-0.352,3081
16.372,-0.895,3081
16.376,-1.413,3081
16.380,-1.830,3134
16.384,-2.098,3134
16.388,-2.170,3134
16.392,-2.087,3134
16.396,-1.817,3134
16.400,-0.825,3134
16.404,-0.398,3134
16.408,0.133,3134
16.412,0.632,3134
16.416,1.058,3133
16.420,1.327,3133
16.424,1.413,3133
16.428,1.323,3133
16.432,1.038,3133
16.436,0.637,3133
16.440,0.152,3133
16.444,-0.362,3133
16.448,-0.890,3133
16.452,-1.405,3133
16.456,-1.817,3124
16.460,-2.062,3124
16.464,-2.145,3124
16.468,-2.055,3124
16.472,-1.802,3124
16.476,-1.390,3124
16.480,-0.302,3124
16.484,0.130,3124
16.488,0.740,3124
16.492,1.075,3141
16.496,1.317,3141
16.500,1.393,3141
16.504,1.308,3141
16.508,1.008,3141
16.512,0.618,3141
16.516,0.140,3141
16.520,-0.380,3141
16.524,-0.910,3141
16.528,-1.427,3141
16.532,-1.853,3116
16.536,-2.112,3116
16.540,-2.183,3116
16.544,-2.098,3116
16.548,-1.833,3116
16.552,-1.417,3116
16.556,-0.927,3116
16.560,0.220,3116
16.564,0.715,3116
16.568,1.062,3151
16.572,1.433,3151
16.576,1.353,3151
16.580,1.085,3151
16.584,0.685,3151
16.588,0.190,3151
16.592,-0.328,3151
16.596,-0.865,3151
16.600,-1.387,3151
16.604,-1.815,3139
16.608,-2.092,3139
16.612,-2.183,3139
16.616,-2.110,3139
16.620,-1.853,3139
16.624,-1.455,3139
16.628,-0.968,3139
16.632,-0.438,3139
16.636,0.105,3139
16.640,1.097,3134
16.644,1.420,3134
16.648,1.343,3134
16.652,1.070,3134
16.656,0.670,3134
16.660,0.182,3134
16.664,-0.330,3134
16.668,-0.858,3134
16.672,-1.373,3134
16.676,-1.792,3132
16.680,-2.053,3132
16.684,-2.163,3132
16.688,-2.085,3132
16.692,-1.825,3132
16.696,-1.420,3132
16.700,-0.932,3132
16.704,-0.422,3132
16.708,0.105,3132
16.712,0.613,3132
16.716,1.032,3129
16.720,1.387,3129
16.724,1.323,3129
16.728,1.038,3129
16.732,0.578,3129
16.736,0.182,3129
16.740,-0.323,3129
16.744,-0.853,3129
16.748,-1.363,3129
16.752,-1.778,3133
16.756,-2.047,3133
16.760,-2.143,3133
16.764,-2.065,3133
16.768,-1.817,3133
16.772,-1.423,3133
16.776,-0.938,3133
16.780,-0.427,3133
16.784,0.105,3133
16.788,0.652,3133
16.792,1.052,3117
16.796,1.325,3117
16.800,1.327,3117
16.804,1.090,3117
16.808,0.665,3117
16.812,0.210,3117
16.816,-0.305,3117
16.820,-0.850,3117
16.824,-1.367,3117
16.828,-1.792,3134
16.832,-2.067,3134
16.836,-2.167,3134
16.840,-2.092,3134
16.844,-1.833,3134
16.848,-1.452,3134
16.852,-0.970,3134
16.856,-0.450,3134
16.860,0.087,3134
16.864,0.608,3134
16.868,1.038,3133
16.872,1.327,3133
16.876,1.425,3133
16.880,1.052,3133
16.884,0.685,3133
16.888,0.152,3133
16.892,-0.290,3133
16.896,-0.833,3133
16.900,-1.343,3133
16.904,-1.788,3113
16.908,-2.080,3113
16.912,-2.175,3113
16.916,-2.112,3113
16.920,-1.863,3113
16.924,-1.472,3113
16.928,-0.983,3113
16.932,-0.458,3113
16.936,0.075,3113
16.940,0.598,3113
16.944,1.038,3113
16.948,1.330,3116
16.952,1.427,3116
16.956,1.357,3116
16.960,0.623,3116
16.964,0.215,3116
16.968,-0.297,3116
16.972,-0.843,3116
16.976,-1.347,3116
16.980,-1.778,3116
16.984,-2.050,3117
16.988,-2.147,3117
16.992,-2.085,3117
16.996,-1.827,3117
17.000,-1.450,3117
17.004,-0.973,3117
17.008,-0.458,3117
17.012,0.072,3117
17.016,0.588,3117
17.020,1.020,3117
17.024,1.308,3124
17.028,1.413,3124
17.032,1.353,3124
17.036,1.097,3124
17.040,0.142,3124
17.044,-0.287,3124
17.048,-0.828,3124
17.052,-1.337,3124
17.056,-1.780,3124
17.060,-2.053,3129
17.064,-2.163,3129
17.068,-2.103,3129
17.072,-1.857,3129
17.076,-1.482,3129
17.080,-1.002,3129
17.084,-0.487,3129
17.088,0.062,3129
17.092,0.583,3129
17.096,1.012,3129
17.100,1.308,3108
17.104,1.417,3108
17.108,1.355,3108
17.112,1.097,3108
17.116,0.708,3108
17.120,-0.372,3108
17.124,-0.828,3108
17.128,-1.343,3108
17.132,-1.782,3108
17.136,-2.058,3108
17.140,-2.178,3108
17.144,-2.112,3108
17.148,-1.867,3108
17.152,-1.488,3108
17.156,-0.990,3108
17.160,-0.465,3108
17.164,0.072,3108
17.168,0.588,3108
17.172,1.028,3108
17.176,1.337,3123
17.180,1.433,3123
17.184,1.377,3123
17.188,1.117,3123
17.192,0.733,3123
17.196,0.250,3123
17.200,-0.907,3123
17.204,-1.407,3123
17.208,-1.790,3123
17.212,-2.060,3121
17.216,-2.172,3121
17.220,-2.103,3121
17.224,-1.860,3121
17.228,-1.468,3121
17.232,-0.988,3121
17.236,-0.463,3121
17.240,0.072,3121
17.244,0.580,3121
17.248,1.020,3121
17.252,1.317,3124
17.256,1.425,3124
17.260,1.370,3124
17.264,1.117,3124
17.268,0.738,3124
17.272,0.263,3124
17.276,-0.247,3124
17.280,-1.387,3124
17.284,-1.745,3124
17.288,-2.035,3110
17.292,-2.163,3110
17.296,-2.103,3110
17.300,-1.863,3110
17.304,-1.488,3110
17.308,-1.002,3110
17.312,-0.492,3110
17.316,0.050,3110
17.320,0.575,3110
17.324,1.010,3110
17.328,1.305,3126
17.332,1.423,3126
17.336,1.380,3126
17.340,1.140,3126
17.344,0.748,3126
17.348,0.268,3126
17.352,-0.250,3126
17.356,-0.780,3126
17.360,-1.823,3126
17.364,-2.050,3127
17.368,-2.175,3127
17.372,-2.123,3127
17.376,-1.873,3127
17.380,-1.502,3127
17.384,-1.020,3127
17.388,-0.507,3127
17.392,0.037,3127
17.396,0.542,3127
17.400,0.995,3127
17.404,1.302,3099
17.408,1.423,3099
17.412,1.380,3099
17.416,1.147,3099
17.420,0.755,3099
17.424,0.278,3099
17.428,-0.233,3099
17.432,-0.777,3099
17.436,-1.308,3099
17.440,-2.087,3138
17.444,-2.125,3138
17.448,-1.890,3138
17.452,-1.510,3138
17.456,-1.032,3138
17.460,-0.507,3138
17.464,0.043,3138
17.468,0.557,3138
17.472,1.008,3138
17.476,1.312,3124
17.480,1.430,3124
17.484,1.380,3124
17.488,1.150,3124
17.492,0.767,3124
17.496,0.295,3124
17.500,-0.212,3124
17.504,-0.750,3124
17.508,-1.288,3124
17.512,-1.738,3124
17.516,-2.027,3137
17.520,-2.105,3137
17.524,-1.833,3137
17.528,-1.482,3137
17.532,-1.032,3137
17.536,-0.527,3137
17.540,0.013,3137
17.544,0.532,3137
17.548,0.980,3137
17.552,1.268,3141
17.556,1.413,3141
17.560,1.357,3141
17.564,1.113,3141
17.568,0.757,3141
17.572,0.292,3141
17.576,-0.217,3141
17.580,-0.755,3141
17.584,-1.333,3141
17.588,-1.742,3141
17.592,-2.035,3146
17.596,-2.172,3146
17.600,-1.827,3146
17.604,-1.502,3146
17.608,-1.018,3146
17.612,-0.500,3146
17.616,0.045,3146
17.620,0.568,3146
17.624,1.018,3146
17.628,1.333,3145
17.632,1.460,3145
17.636,1.410,3145
17.640,1.177,3145
17.644,0.792,3145
17.648,0.312,3145
17.652,-0.193,3145
17.656,-0.740,3145
17.660,-1.258,3145
17.664,-1.715,3145
17.668,-2.025,3118
17.672,-2.167,3118
17.676,-2.112,3118
17.680,-1.442,3118
17.684,-1.008,3118
17.688,-0.525,3118
17.692,0.022,3118
17.696,0.537,3118
17.700,0.995,3118
17.704,1.305,3143
17.708,1.425,3143
17.712,1.383,3143
17.716,1.147,3143
17.720,0.757,3143
17.724,0.292,3143
17.728,-0.228,3143
17.732,-0.770,3143
17.736,-1.302,3143
17.740,-1.762,3143
17.744,-2.050,3130
17.748,-2.178,3130
17.752,-2.138,3130
17.756,-1.903,3130
17.760,-0.988,3130
17.764,-0.562,3130
17.768,-0.035,3130
17.772,0.495,3130
17.776,0.948,3130
17.780,1.252,3079
17.784,1.390,3079
17.788,1.343,3079
17.792,1.113,3079
17.796,0.743,3079
17.800,0.275,3079
17.804,-0.228,3079
17.808,-0.752,3079
17.812,-1.262,3079
17.816,-1.708,3079
17.820,-2.013,3125
17.824,-2.143,3125
17.828,-2.100,3125
17.832,-1.885,3125
17.836,-1.520,3125
17.840,-0.445,3125
17.844,0.018,3125
17.848,0.527,3125
17.852,0.983,3125
17.856,1.272,3122
17.860,1.407,3122
17.864,1.370,3122
17.868,1.140,3122
17.872,0.757,3122
17.876,0.292,3122
17.880,-0.220,3122
17.884,-0.748,3122
17.888,-1.262,3122
17.892,-1.715,3122
17.896,-2.015,3125
17.900,-2.152,3125
17.904,-2.123,3125
17.908,-1.887,3125
17.912,-1.522,3125
17.916,-1.045,3125
17.920,0.087,3125
17.924,0.512,3125
17.928,0.975,3125
17.932,1.270,3125
17.936,1.413,3116
17.940,1.375,3116
17.944,1.147,3116
17.948,0.777,3116
17.952,0.287,3116
17.956,-0.203,3116
17.960,-0.713,3116
17.964,-1.232,3116
17.968,-1.688,3116
17.972,-1.990,3116
17.976,-2.135,3123
17.980,-2.098,3123
17.984,-1.877,3123
17.988,-1.512,3123
17.992,-1.042,3123
17.996,-0.530,3123
18.000,0.610,3123
18.004,0.988,3123
18.008,1.302,3123
18.012,1.433,3116
18.016,1.407,3116
18.020,1.177,3116
18.024,0.795,3116
18.028,0.335,3116
18.032,-0.193,3116
18.036,-0.730,3116
18.040,-1.252,3116
18.044,-1.712,3116
18.048,-2.027,3116
18.052,-2.167,3118
18.056,-2.120,3118
18.060,-1.903,3118
18.064,-1.545,3118
18.068,-1.073,3118
18.072,-0.565,3118
18.076,-0.028,3118
18.080,1.028,3118
18.084,1.268,3118
18.088,1.420,3107
18.092,1.387,3107
18.096,1.177,3107
18.100,0.818,3107
18.104,0.352,3107
18.108,-0.163,3107
18.112,-0.693,3107
18.116,-1.218,3107
18.120,-1.673,3107
18.124,-1.982,3107
18.128,-2.127,3112
18.132,-2.092,3112
18.136,-1.873,3112
18.140,-1.512,3112
18.144,-1.048,3112
18.148,-0.540,3112
18.152,-0.022,3112
18.156,0.497,3112
18.160,1.302,3108
18.164,1.357,3108
18.168,1.140,3108
18.172,0.770,3108
18.176,0.297,3108
18.180,-0.215,3108
18.184,-0.740,3108
18.188,-1.258,3108
18.192,-1.722,3108
18.196,-2.027,3108
18.200,-2.167,3131
18.204,-2.140,3131
18.208,-1.927,3131
18.212,-1.562,3131
18.216,-1.093,3131
18.220,-0.588,3131
18.224,-0.062,3131
18.228,0.463,3131
18.232,0.917,3131
18.236,1.248,3131
18.240,1.360,3082
18.244,0.752,3082
18.248,0.302,3082
18.252,-0.168,3082
18.256,-0.703,3082
18.260,-1.298,3082
18.264,-1.718,3082
18.268,-2.060,3082
18.272,-2.192,3112
18.276,-2.165,3112
18.280,-1.972,3112
18.284,-1.573,3112
18.288,-1.105,3112
18.292,-0.610,3112
18.296,-0.072,3112
18.300,0.455,3112
18.304,0.927,3112
18.308,1.255,3112
18.312,1.417,3073
18.316,1.387,3073
18.320,0.740,3073
18.324,0.352,3073
18.328,-0.163,3073
18.332,-0.728,3073
18.336,-1.228,3073
18.340,-1.692,3073
18.344,-2.013,3073
18.348,-2.150,3132
18.352,-2.127,3132
18.356,-1.923,3132
18.360,-1.562,3132
18.364,-1.093,3132
18.368,-0.580,3132
18.372,-0.048,3132
18.376,0.477,3132
18.380,0.948,3132
18.384,1.272,3132
18.388,1.427,3133
18.392,1.397,3133
18.396,1.177,3133
18.400,0.258,3133
18.404,-0.168,3133
18.408,-0.710,3133
18.412,-1.232,3133
18.416,-1.708,3133
18.420,-2.025,3133
18.424,-2.178,3122
18.428,-2.160,3122
18.432,-1.962,3122
18.436,-1.587,3122
18.440,-1.123,3122
18.444,-0.608,3122
18.448,-0.075,3122
18.452,0.458,3122
18.456,0.927,3122
18.460,1.255,3122
18.464,1.423,3137
18.468,1.407,3137
18.472,1.198,3137
18.476,0.835,3137
18.480,-0.223,3137
18.484,-0.682,3137
18.488,-1.208,3137
18.492,-1.673,3137
18.496,-2.005,3137
18.500,-2.163,3131
18.504,-2.138,3131
18.508,-1.942,3131
18.512,-1.577,3131
18.516,-1.110,3131
18.520,-0.603,3131
18.524,-0.083,3131
18.528,0.435,3131
18.532,0.902,3131
18.536,1.230,3131
18.540,1.385,3149
18.544,1.373,3149
18.548,1.167,3149
18.552,0.823,3149
18.556,0.367,3149
18.560,-0.762,3149
18.564,-1.202,3149
18.568,-1.665,3149
18.572,-1.988,3149
18.576,-2.145,3148
18.580,-1.907,3148
18.584,-1.542,3148
18.588,-1.097,3148
18.592,-0.568,3148
18.596,-0.072,3148
18.600,0.448,3148
18.604,0.907,3148
18.608,1.232,3148
18.612,1.397,3101
18.616,1.387,3101
18.620,1.183,3101
18.624,0.833,3101
18.628,0.378,3101
18.632,-0.138,3101
18.636,-0.672,3101
18.640,-1.762,3101
18.644,-2.183,3120
18.648,-2.167,3120
18.652,-1.968,3120
18.656,-1.623,3120
18.660,-1.147,3120
18.664,-0.642,3120
18.668,-0.102,3120
18.672,0.432,3120
18.676,0.905,3120
18.680,1.238,3120
18.684,1.410,3146
18.688,1.397,3146
18.692,1.188,3146
18.696,0.838,3146
18.700,0.372,3146
18.704,-0.138,3146
18.708,-0.685,3146
18.712,-1.212,3146
18.716,-1.683,3146
18.720,-2.183,3135
18.724,-1.927,3135
18.728,-1.573,3135
18.732,-1.103,3135
18.736,-0.583,3135
18.740,-0.068,3135
18.744,0.453,3135
18.748,0.917,3135
18.752,1.258,3135
18.756,1.423,3104
18.760,1.413,3104
18.764,1.210,3104
18.768,0.858,3104
18.772,0.388,3104
18.776,-0.115,3104
18.780,-0.657,3104
18.784,-1.190,3104
18.788,-1.660,3104
18.792,-1.988,3104
18.796,-2.152,3130
18.800,-1.923,3130
18.804,-1.617,3130
18.808,-1.147,3130
18.812,-0.627,3130
18.816,-0.102,3130
18.820,0.425,3130
18.824,0.902,3130
18.828,1.240,3130
18.832,1.420,3117
18.836,1.407,3117
18.840,1.212,3117
18.844,0.868,3117
18.848,0.398,3117
18.852,-0.102,3117
18.856,-0.642,3117
18.860,-1.163,3117
18.864,-1.640,3117
18.868,-1.965,3117
18.872,-2.123,3117
18.876,-2.125,3117
18.880,-1.528,3117
18.884,-1.137,3117
18.888,-0.620,3117
18.892,-0.098,3117
18.896,0.432,3117
18.900,0.902,3117
18.904,1.238,3117
18.908,1.417,3122
18.912,1.410,3122
18.916,1.208,3122
18.920,0.865,3122
18.924,0.410,3122
18.928,-0.098,3122
18.932,-0.627,3122
18.936,-1.167,3122
18.940,-1.647,3122
18.944,-1.988,3122
18.948,-2.150,3122
18.952,-2.167,3123
18.956,-1.972,3123
18.960,-1.058,3123
18.964,-0.562,3123
18.968,-0.100,3123
18.972,0.497,3123
18.976,0.892,3123
18.980,1.230,3123
18.984,1.413,3123
18.988,1.410,3108
18.992,1.212,3108
18.996,0.887,3108
19.000,0.432,3108
19.004,-0.070,3108
19.008,-0.603,3108
19.012,-1.133,3108
19.016,-1.617,3108
19.020,-1.972,3108
19.024,-2.138,3108
19.028,-2.152,3099
19.032,-1.968,3099
19.036,-1.627,3099
19.040,-0.573,3099
19.044,-0.102,3099
19.048,0.417,3099
19.052,0.905,3099
19.056,1.258,3099
19.060,1.427,3099
19.064,1.438,3115
19.068,1.238,3115
19.072,0.902,3115
19.076,0.458,3115
19.080,-0.062,3115
19.084,-0.603,3115
19.088,-1.143,3115
19.092,-1.627,3115
19.096,-1.978,3115
19.100,-2.163,3115
19.104,-2.167,3110
19.108,-1.980,3110
19.112,-1.645,3110
19.116,-1.177,3110
19.120,-0.058,3110
19.124,0.388,3110
19.128,0.868,3110
19.132,1.417,3108
19.136,1.208,3108
19.140,0.863,3108
19.144,0.412,3108
19.148,-0.102,3108
19.152,-0.627,3108
19.156,-1.163,3108
19.160,-1.643,3108
19.164,-1.980,3108
19.168,-2.147,3108
19.172,-2.163,3123
19.176,-1.972,3123
19.180,-1.643,3123
19.184,-1.180,3123
19.188,-0.680,3123
19.192,-0.142,3123
19.196,0.378,3123
19.200,1.232,3123
19.204,1.377,3123
19.208,1.383,3097
19.212,1.188,3097
19.216,0.863,3097
19.220,0.407,3097
19.224,-0.095,3097
19.228,-0.618,3097
19.232,-1.153,3097
19.236,-1.630,3097
19.240,-1.980,3097
19.244,-2.163,3097
19.248,-2.172,3094
19.252,-1.990,3094
19.256,-1.657,3094
19.260,-1.200,3094
19.264,-0.688,3094
19.268,-0.168,3094
19.272,0.372,3094
19.276,0.850,3094
19.280,1.400,3094
19.284,1.390,3117
19.288,1.212,3117
19.292,0.873,3117
19.296,0.417,3117
19.300,-0.092,3117
19.304,-0.623,3117
19.308,-1.157,3117
19.312,-1.653,3117
19.316,-1.995,3117
19.320,-2.172,3117
19.324,-2.180,3124
19.328,-1.995,3124
19.332,-1.667,3124
19.336,-1.202,3124
19.340,-0.693,3124
19.344,-0.168,3124
19.348,0.388,3124
19.352,0.868,3124
19.356,1.225,3124
19.360,1.410,3117
19.364,0.873,3117
19.368,0.448,3117
19.372,-0.058,3117
19.376,-0.593,3117
19.380,-1.140,3117
19.384,-1.633,3117
19.388,-1.988,3117
19.392,-2.172,3117
19.396,-2.188,3103
19.400,-2.020,3103
19.404,-1.692,3103
19.408,-1.232,3103
19.412,-0.730,3103
19.416,-0.195,3103
19.420,0.345,3103
19.424,0.833,3103
19.428,1.192,3103
19.432,1.390,3103
19.436,1.413,3141
19.440,0.818,3141
19.444,0.448,3141
19.448,-0.100,3141
19.452,-0.583,3141
19.456,-1.110,3141
19.460,-1.603,3141
19.464,-1.948,3141
19.468,-2.127,3141
19.472,-2.143,3118
19.476,-1.968,3118
19.480,-1.603,3118
19.484,-1.165,3118
19.488,-0.682,3118
19.492,-0.147,3118
19.496,0.378,3118
19.500,0.858,3118
19.504,1.218,3118
19.508,1.390,3118
19.512,1.407,3130
19.516,1.218,3130
19.520,0.338,3130
19.524,-0.107,3130
19.528,-0.613,3130
19.532,-1.143,3130
19.536,-1.640,3130
19.540,-1.988,3130
19.544,-2.167,3130
19.548,-2.175,3097
19.552,-1.990,3097
19.556,-1.660,3097
19.560,-1.200,3097
19.564,-0.688,3097
19.568,-0.165,3097
19.572,0.383,3097
19.576,0.860,3097
19.580,1.215,3097
19.584,1.407,3097
19.588,1.420,3123
19.592,1.235,3123
19.596,0.907,3123
19.600,-0.138,3123
19.604,-0.578,3123
19.608,-1.107,3123
19.612,-1.605,3123
19.616,-1.960,3123
19.620,-2.135,3123
19.624,-2.152,3152
19.628,-1.988,3152
19.632,-1.673,3152
19.636,-1.218,3152
19.640,-0.713,3152
19.644,-0.193,3152
19.648,0.338,3152
19.652,0.820,3152
19.656,1.177,3152
19.660,1.377,3152
19.664,1.397,3147
19.668,1.218,3147
19.672,0.900,3147
19.676,0.450,3147
19.680,-0.680,3147
19.684,-1.165,3147
19.688,-1.623,3147
19.692,-1.982,3147
19.696,-2.165,3147
19.700,-2.178,3140
19.704,-2.020,3140
19.708,-1.698,3140
19.712,-1.252,3140
19.716,-0.738,3140
19.720,-0.210,3140
19.724,0.338,3140
19.728,0.820,3140
19.732,1.183,3140
19.736,1.393,3140
19.740,1.417,3146
19.744,1.238,3146
19.748,0.917,3146
19.752,0.477,3146
19.756,-0.022,3146
19.760,-1.163,3146
19.764,-1.567,3146
19.768,-1.940,3146
19.772,-2.125,3146
19.776,-2.163,3129
19.780,-2.005,3129
19.784,-1.688,3129
19.788,-1.232,3129
19.792,-0.733,3129
19.796,-0.210,3129
19.800,0.318,3129
19.804,0.818,3129
19.808,1.177,3129
19.812,1.393,3129
19.816,1.417,3132
19.820,1.238,3132
19.824,0.910,3132
19.828,0.470,3132
19.832,-0.043,3132
19.836,-0.547,3132
19.840,-1.650,3132
19.844,-1.942,3132
19.848,-2.130,3132
19.852,-2.163,3103
19.856,-2.002,3103
19.860,-1.683,3103
19.864,-1.218,3103
19.868,-0.718,3103
19.872,-0.172,3103
19.876,0.338,3103
19.880,0.825,3103
19.884,1.188,3103
19.888,1.393,3103
19.892,1.417,3116
19.896,1.228,3116
19.900,0.920,3116
19.904,0.477,3116
19.908,-0.025,3116
19.912,-0.542,3116
19.916,-1.070,3116
19.920,-1.970,3116
19.924,-2.123,3116
19.928,-2.147,3118
19.932,-1.992,3118
19.936,-1.685,3118
19.940,-1.228,3118
19.944,-0.738,3118
19.948,-0.223,3118
19.952,0.302,3118
19.956,0.777,3118
19.960,1.153,3118
19.964,1.353,3118
19.968,1.383,3118
19.972,1.218,3117
19.976,0.902,3117
19.980,0.468,3117
19.984,-0.033,3117
19.988,-0.550,3117
19.992,-1.073,3117
19.996,-1.573,3117
20.000,-2.143,3117
20.004,-2.147,3117
20.008,-1.992,3122
20.012,-1.665,3122
20.016,-1.225,3122
20.020,-0.733,3122
20.024,-0.212,3122
20.028,0.310,3122
20.032,0.790,3122
20.036,1.167,3122
20.040,1.387,3122
20.044,1.407,3122
20.048,1.252,3119
20.052,0.917,3119
20.056,0.500,3119
20.060,-0.013,3119
20.064,-0.537,3119
20.068,-1.067,3119
20.072,-1.565,3119
20.076,-1.938,3119
20.080,-2.147,3112
20.084,-1.702,3112
20.088,-1.262,3112
20.092,-0.767,3112
20.096,-0.242,3112
20.100,0.295,3112
20.104,0.790,3112
20.108,1.167,3112
20.112,1.380,3112
20.116,1.410,3112
20.120,1.255,3133
20.124,0.927,3133
20.128,0.502,3133
20.132,-0.013,3133
20.136,-0.537,3133
20.140,-1.073,3133
20.144,-1.567,3133
20.148,-1.950,3133
20.152,-2.143,3133
20.156,-2.183,3133
20.160,-1.657,3114
20.164,-0.775,3114
20.168,-0.258,3114
20.172,0.273,3114
20.176,0.770,3114
20.180,1.147,3114
20.184,1.367,3114
20.188,1.410,3114
20.192,1.258,3125
20.196,0.948,3125
20.200,0.522,3125
20.204,0.018,3125
20.208,-0.522,3125
20.212,-1.055,3125
20.216,-1.552,3125
20.220,-1.933,3125
20.224,-2.132,3125
20.228,-2.167,3125
20.232,-2.027,3072
20.236,-1.712,3072
20.240,-0.688,3072
20.244,-0.255,3072
20.248,0.287,3072
20.252,0.797,3072
20.256,1.167,3072
20.260,1.380,3072
20.264,1.423,3072
20.268,1.272,3082
20.272,0.948,3082
20.276,0.530,3082
20.280,0.028,3082
20.284,-0.502,3082
20.288,-1.032,3082
20.292,-1.535,3082
20.296,-1.910,3082
20.300,-2.127,3082
20.304,-2.172,3082
20.308,-2.033,3125
20.312,-1.728,3125
20.316,-1.300,3125
20.320,-0.172,3125
20.324,0.278,3125
20.328,0.780,3125
20.332,1.167,3125
20.336,1.387,3125
20.340,1.452,3125
20.344,1.308,3111
20.348,0.995,3111
20.352,0.568,3111
20.356,0.068,3111
20.360,-0.482,3111
20.364,-1.012,3111
20.368,-1.508,3111
20.372,-1.890,3111
20.376,-2.103,3111
20.380,-2.143,3111
20.384,-2.013,3118
20.388,-1.702,3118
20.392,-1.285,3118
20.396,-0.777,3118
20.400,0.370,3118
20.404,0.775,3118
20.408,1.157,3118
20.412,1.383,3118
20.416,1.425,3118
20.420,1.298,3126
20.424,0.960,3126
20.428,0.542,3126
20.432,0.055,3126
20.436,-0.485,3126
20.440,-1.022,3126
20.444,-1.520,3126
20.448,-1.903,3126
20.452,-2.123,3126
20.456,-2.175,3126
20.460,-2.027,3123
20.464,-1.732,3123
20.468,-1.308,3123
20.472,-0.805,3123
20.476,-0.282,3123
20.480,0.848,3123
20.484,1.157,3123
20.488,1.387,3123
20.492,1.438,3123
20.496,1.310,3130
20.500,0.995,3130
20.504,0.573,3130
20.508,0.077,3130
20.512,-0.448,3130
20.516,-0.990,3130
20.520,-1.552,3130
20.524,-1.880,3130
20.528,-2.105,3130
20.532,-2.140,3130
20.536,-2.013,3124
20.540,-1.675,3124
20.544,-1.212,3124
20.548,-0.767,3124
20.552,-0.250,3124
20.556,0.300,3124
20.560,1.212,3124
20.564,1.390,3124
20.568,1.423,3124
20.572,1.278,3139
20.576,0.540,3139
20.580,0.070,3139
20.584,-0.485,3139
20.588,-1.100,3139
20.592,-1.522,3139
20.596,-1.863,3139
20.600,-2.087,3139
20.604,-2.143,3139
20.608,-2.018,3122
20.612,-1.722,3122
20.616,-1.302,3122
20.620,-0.807,3122
20.624,-0.282,3122
20.628,0.263,3122
20.632,0.772,3122
20.636,1.167,3122
20.640,1.458,3122
20.644,1.340,3144
20.648,1.012,3144
20.652,0.578,3144
20.656,0.080,3144
20.660,-0.453,3144
20.664,-1.002,3144
20.668,-1.502,3144
20.672,-1.893,3144
20.676,-2.112,3144
20.680,-2.175,3144
20.684,-2.038,3129
20.688,-1.762,3129
20.692,-1.333,3129
20.696,-0.843,3129
20.700,-0.328,3129
20.704,0.217,3129
20.708,0.718,3129
20.712,1.113,3129
20.716,1.353,3129
20.720,1.252,3144
20.724,0.568,3144
20.728,0.077,3144
20.732,-0.443,3144
20.736,-0.978,3144
20.740,-1.488,3144
20.744,-1.883,3144
20.748,-2.112,3144
20.752,-2.152,3144
20.756,-2.035,3139
20.760,-1.748,3139
20.764,-1.325,3139
20.768,-0.818,3139
20.772,-0.285,3139
20.776,0.247,3139
20.780,0.748,3139
20.784,1.153,3139
20.788,1.375,3139
20.792,1.433,3139
20.796,1.312,3139
20.800,0.497,3139
20.804,0.077,3139
20.808,-0.450,3139
20.812,-1.002,3139
20.816,-1.502,3139
20.820,-1.893,3139
20.824,-2.123,3139
20.828,-2.172,3139
20.832,-2.033,3132
20.836,-1.740,3132
20.840,-1.327,3132
20.844,-0.825,3132
20.848,-0.300,3132
20.852,0.228,3132
20.856,0.728,3132
20.860,1.117,3132
20.864,1.357,3132
20.868,1.423,3132
20.872,1.312,3121
20.876,1.010,3121
20.880,0.013,3121
20.884,-0.458,3121
20.888,-0.993,3121
20.892,-1.508,3121
20.896,-1.885,3121
20.900,-2.103,3121
20.904,-2.147,3121
20.908,-2.033,3096
20.912,-1.742,3096
20.916,-1.333,3096
20.920,-0.833,3096
20.924,-0.325,3096
20.928,0.302,3096
20.932,0.718,3096
20.936,1.103,3096
20.940,1.340,3096
20.944,1.397,3096
20.948,1.270,3122
20.952,0.973,3122
20.956,0.530,3122
20.960,-0.532,3122
20.964,-0.980,3122
20.968,-1.500,3122
20.972,-1.857,3122
20.976,-2.090,3122
20.980,-2.147,3122
20.984,-2.027,3122
20.988,-1.695,3138
20.992,-0.782,3138
20.996,-0.328,3138
21.000,0.215,3138
21.004,0.708,3138
21.008,1.107,3138
21.012,1.347,3138
21.016,1.420,3138
21.020,1.308,3138
21.024,0.993,3115
21.028,0.555,3115
21.032,0.098,3115
21.036,-0.448,3115
21.040,-1.562,3115
21.044,-1.972,3115
21.048,-2.130,3115
21.052,-2.178,3115
21.056,-2.062,3115
21.060,-1.788,3109
21.064,-1.347,3109
21.068,-0.845,3109
21.072,-0.328,3109
21.076,0.215,3109
21.080,0.718,3109
21.084,1.133,3109
21.088,1.380,3109
21.092,1.458,3109
21.096,1.343,3109
21.100,1.038,3111
21.104,0.598,3111
21.108,0.107,3111
21.112,-0.422,3111
21.116,-0.970,3111
21.120,-1.935,3111
21.124,-2.112,3111
21.128,-2.178,3111
21.132,-2.083,3111
21.136,-1.802,3104
21.140,-1.375,3104
21.144,-0.882,3104
21.148,-0.360,3104
21.152,0.190,3104
21.156,0.698,3104
21.160,1.097,3104
21.164,1.353,3104
21.168,1.427,3104
21.172,1.327,3104
21.176,1.038,3123
21.180,0.615,3123
21.184,0.133,3123
21.188,-0.388,3123
21.192,-0.938,3123
21.196,-1.445,3123
21.200,-2.112,3123
21.204,-2.163,3123
21.208,-2.047,3123
21.212,-1.772,3102
21.216,-1.340,3102
21.220,-0.845,3102
21.224,-0.328,3102
21.228,0.212,3102
21.232,0.713,3102
21.236,1.133,3102
21.240,1.373,3102
21.244,1.435,3102
21.248,1.333,3102
21.252,1.032,3116
21.256,0.598,3116
21.260,0.128,3116
21.264,-0.403,3116
21.268,-0.932,3116
21.272,-1.448,3116
21.276,-1.853,3116
21.280,-2.147,3116
21.284,-2.053,3116
21.288,-1.778,3116
21.292,-1.333,3116
21.296,-0.858,3116
21.300,-0.343,3116
21.304,0.193,3116
21.308,0.698,3116
21.312,1.100,3116
21.316,1.350,3116
21.320,1.427,3116
21.324,1.330,3116
21.328,1.038,3114
21.332,0.613,3114
21.336,0.128,3114
21.340,-0.388,3114
21.344,-0.925,3114
21.348,-1.442,3114
21.352,-1.843,3114
21.356,-2.085,3114
21.360,-2.013,3114
21.364,-1.778,3119
21.368,-1.353,3119
21.372,-0.858,3119
21.376,-0.352,3119
21.380,0.182,3119
21.384,0.670,3119
21.388,1.070,3119
21.392,1.330,3119
21.396,1.407,3119
21.400,1.302,3119
21.404,1.018,3115
21.408,0.593,3115
21.412,0.068,3115
21.416,-0.427,3115
21.420,-0.930,3115
21.424,-1.448,3115
21.428,-1.853,3115
21.432,-2.103,3115
21.436,-2.178,3115
21.440,-1.745,3135
21.444,-0.843,3135
21.448,-0.370,3135
21.452,0.177,3135
21.456,0.688,3135
21.460,1.095,3135
21.464,1.347,3135
21.468,1.425,3135
21.472,1.325,3135
21.476,1.030,3113
21.480,0.593,3113
21.484,0.117,3113
21.488,-0.412,3113
21.492,-0.948,3113
21.496,-1.465,3113
21.500,-1.873,3113
21.504,-2.125,3113
21.508,-2.192,3113
21.512,-2.103,3113
21.516,-1.823,3137
21.520,-0.812,3137
21.524,-0.380,3137
21.528,0.168,3137
21.532,0.675,3137
21.536,1.093,3137
21.540,1.347,3137
21.544,1.423,3137
21.548,1.323,3137
21.552,1.032,3146
21.556,0.608,3146
21.560,0.133,3146
21.564,-0.390,3146
21.568,-0.932,3146
21.572,-1.450,3146
21.576,-1.860,3146
21.580,-2.110,3146
21.584,-2.183,3146
21.588,-2.083,3146
21.592,-1.808,3129
21.596,-1.377,3129
21.600,-0.282,3129
21.604,0.158,3129
21.608,0.672,3129
21.612,1.090,3129
21.616,1.367,3129
21.620,1.452,3129
21.624,1.347,3129
21.628,1.073,3152
21.632,0.637,3152
21.636,0.152,3152
21.640,-0.367,3152
21.644,-0.912,3152
21.648,-1.425,3152
21.652,-1.847,3152
21.656,-2.092,3152
21.660,-2.165,3152
21.664,-2.060,3152
21.668,-1.792,3138
21.672,-1.383,3138
21.676,-0.900,3138
21.680,0.233,3138
21.684,0.688,3138
21.688,1.087,3138
21.692,1.347,3138
21.696,1.448,3138
21.700,1.347,3138
21.704,1.073,3126
21.708,0.637,3126
21.712,0.170,3126
21.716,-0.352,3126
21.720,-0.892,3126
21.724,-1.405,3126
21.728,-1.823,3126
21.732,-2.092,3126
21.736,-2.172,3126
21.740,-2.087,3126
21.744,-1.825,3136
21.748,-1.417,3136
21.752,-0.932,3136
21.756,-0.415,3136
21.760,0.703,3136
21.764,1.077,3136
21.768,1.337,3136
21.772,1.425,3136
21.776,1.345,3136
21.780,1.075,3133
21.784,0.637,3133
21.788,0.172,3133
21.792,-0.350,3133
21.796,-0.887,3133
21.800,-1.427,3133
21.804,-1.820,3133
21.808,-2.083,3133
21.812,-2.160,3133
21.816,-2.062,3133
21.820,-1.808,3110
21.824,-1.385,3110
21.828,-0.897,3110
21.832,-0.385,3110
21.836,0.142,3110
21.840,1.113,3110
21.844,1.337,3110
21.848,1.423,3110
21.852,1.343,3110
21.856,1.077,3129
21.860,0.667,3129
21.864,0.195,3129
21.868,-0.323,3129
21.872,-0.858,3129
21.876,-1.373,3129
21.880,-1.788,3129
21.884,-2.045,3129
21.888,-2.135,3129
21.892,-2.033,3129
21.896,-1.780,3072
21.900,-1.367,3072
21.904,-0.873,3072
21.908,-0.362,3072
21.912,0.182,3072
21.916,0.693,3072
21.920,1.407,3072
21.924,1.472,3072
21.928,1.390,3072
21.932,1.117,3112
21.936,0.703,3112
21.940,0.217,3112
21.944,-0.297,3112
21.948,-0.853,3112
21.952,-1.367,3112
21.956,-1.802,3112
21.960,-2.062,3112
21.964,-2.165,3112
21.968,-2.083,3112
21.972,-1.823,3112
21.976,-1.427,3126
21.980,-0.930,3126
21.984,-0.427,3126
21.988,0.102,3126
21.992,0.618,3126
21.996,1.038,3126
22.000,1.397,3126
22.004,1.330,3126
22.008,1.058,3126
22.012,0.660,3125
22.016,0.158,3125
22.020,-0.347,3125
22.024,-0.890,3125
22.028,-1.407,3125
22.032,-1.830,3125
22.036,-2.098,3125
22.040,-2.188,3125
22.044,-2.103,3125
22.048,-1.843,3125
22.052,-1.442,3121
22.056,-0.943,3121
22.060,-0.445,3121
22.064,0.092,3121
22.068,0.610,3121
22.072,1.032,3121
22.076,1.323,3121
22.080,1.325,3121
22.084,1.067,3121
22.088,0.677,3114
22.092,0.180,3114
22.096,-0.333,3114
22.100,-0.868,3114
22.104,-1.387,3114
22.108,-1.817,3114
22.112,-2.085,3114
22.116,-2.172,3114
22.120,-2.092,3114
22.124,-1.827,3114
22.128,-1.423,3128
22.132,-0.912,3128
22.136,-0.412,3128
22.140,0.117,3128
22.144,0.630,3128
22.148,1.067,3128
22.152,1.345,3128
22.156,1.450,3128
22.160,1.038,3109
22.164,0.155,3109
22.168,-0.325,3109
22.172,-0.863,3109
22.176,-1.385,3109
22.180,-1.817,3109
22.184,-2.095,3109
22.188,-2.178,3109
22.192,-2.105,3109
22.196,-1.853,3109
22.200,-1.452,3126
22.204,-0.943,3126
22.208,-0.432,3126
22.212,0.102,3126
22.216,0.618,3126
22.220,1.040,3126
22.224,1.335,3126
22.228,1.438,3126
22.232,1.373,3126
22.236,1.107,3126
22.240,0.140,3101
22.244,-0.868,3101
22.248,-1.373,3101
22.252,-1.795,3101
22.256,-2.062,3101
22.260,-2.167,3101
22.264,-2.098,3101
22.268,-1.845,3101
22.272,-1.452,3109
22.276,-0.963,3109
22.280,-0.453,3109
22.284,0.070,3109
22.288,0.590,3109
22.292,1.012,3109
22.296,1.272,3109
22.300,1.390,3109
22.304,1.323,3109
22.308,1.062,3109
22.312,0.672,3129
22.316,0.188,3129
22.320,-0.945,3129
22.324,-1.377,3129
22.328,-1.808,3129
22.332,-2.087,3129
22.336,-2.188,3129
22.340,-2.127,3129
22.344,-1.885,3129
22.348,-1.492,3112
22.352,-1.002,3112
22.356,-0.485,3112
22.360,0.062,3112
22.364,0.578,3112
22.368,1.018,3112
22.372,1.305,3112
22.376,1.417,3112
22.380,1.350,3112
22.384,1.100,3112
22.388,0.708,3140
22.392,0.217,3140
22.396,-0.292,3140
22.400,-1.417,3140
22.404,-1.778,3140
22.408,-2.047,3140
22.412,-2.147,3140
22.416,-2.085,3140
22.420,-1.827,3140
22.424,-1.445,3123
22.428,-0.938,3123
22.432,-0.448,3123
22.436,0.098,3123
22.440,0.608,3123
22.444,1.035,3123
22.448,1.323,3123
22.452,1.427,3123
22.456,1.355,3123
22.460,1.097,3123
22.464,0.700,3141
22.468,0.207,3141
22.472,-0.295,3141
22.476,-0.833,3141
22.480,-1.847,3141
22.484,-2.065,3141
22.488,-2.183,3141
22.492,-2.127,3141
22.496,-1.883,3141
22.500,-1.492,3137
22.504,-0.990,3137
22.508,-0.468,3137
22.512,0.070,3137
22.516,0.593,3137
22.520,1.038,3137
22.524,1.337,3137
22.528,1.455,3137
22.532,1.390,3137
22.536,1.137,3137
22.540,0.748,3130
22.544,0.253,3130
22.548,-0.258,3130
22.552,-0.812,3130
22.556,-1.337,3130
22.560,-2.080,3130
22.564,-2.143,3130
22.568,-2.095,3130
22.572,-1.843,3130
22.576,-1.470,3142
22.580,-0.980,3142
22.584,-0.490,3142
22.588,0.050,3142
22.592,0.555,3142
22.596,1.060,3142
22.600,1.298,3142
22.604,1.407,3142
22.608,1.347,3142
22.612,1.097,3142
22.616,0.715,3141
22.620,0.230,3141
22.624,-0.263,3141
22.628,-0.807,3141
22.632,-1.327,3141
22.636,-1.762,3141
22.640,-2.143,3141
22.644,-2.085,3141
22.648,-1.845,3141
22.652,-1.452,3150
22.656,-0.968,3150
22.660,-0.458,3150
22.664,0.077,3150
22.668,0.590,3150
22.672,1.035,3150
22.676,1.333,3150
22.680,1.438,3150
22.684,1.377,3150
22.688,1.117,3150
22.692,0.733,3135
22.696,0.233,3135
22.700,-0.270,3135
22.704,-0.812,3135
22.708,-1.337,3135
22.712,-1.770,3135
22.716,-2.050,3135
22.720,-2.067,3135
22.724,-1.863,3135
22.728,-1.482,3139
22.732,-0.993,3139
22.736,-0.482,3139
22.740,0.062,3139
22.744,0.578,3139
22.748,1.022,3139
22.752,1.323,3139
22.756,1.427,3139
22.760,1.370,3139
22.764,1.117,3139
22.768,0.738,3130
22.772,0.237,3130
22.776,-0.268,3130
22.780,-0.812,3130
22.784,-1.340,3130
22.788,-1.770,3130
22.792,-2.062,3130
22.796,-2.188,3130
22.800,-1.840,3130
22.804,-1.502,3114
22.808,-1.012,3114
22.812,-0.502,3114
22.816,0.048,3114
22.820,0.568,3114
22.824,1.018,3114
22.828,1.325,3114
22.832,1.438,3114
22.836,1.393,3114
22.840,1.150,3114
22.844,0.767,3149
22.848,0.268,3149
22.852,-0.247,3149
22.856,-0.802,3149
22.860,-1.333,3149
22.864,-1.778,3149
22.868,-2.067,3149
22.872,-2.190,3149
22.876,-2.145,3149
22.880,-1.450,3135
22.884,-0.492,3135
22.888,0.037,3135
22.892,0.552,3135
22.896,1.008,3135
22.900,1.310,3135
22.904,1.433,3135
22.908,1.387,3135
22.912,1.150,3135
22.916,0.760,3114
22.920,0.270,3114
22.924,-0.250,3114
22.928,-0.802,3114
22.932,-1.330,3114
22.936,-1.778,3114
22.940,-2.085,3114
22.944,-2.195,3114
22.948,-2.147,3114
22.952,-1.927,3114
22.956,-1.535,3134
22.960,-0.405,3134
22.964,0.018,3134
22.968,0.547,3134
22.972,0.998,3134
22.976,1.308,3134
22.980,1.438,3134
22.984,1.407,3134
22.988,1.150,3134
22.992,0.770,3134
22.996,0.287,3112
23.000,-0.247,3112
23.004,-0.780,3112
23.008,-1.323,3112
23.012,-1.775,3112
23.016,-2.067,3112
23.020,-2.197,3112
23.024,-2.163,3112
23.028,-1.935,3112
23.032,-1.550,3112
23.036,-1.070,3124
23.040,0.092,3124
23.044,0.527,3124
23.048,0.983,3124
23.052,1.298,3124
23.056,1.423,3124
23.060,1.387,3124
23.064,1.157,3124
23.068,0.780,3124
23.072,0.312,3127
23.076,-0.203,3127
23.080,-0.735,3127
23.084,-1.258,3127
23.088,-1.712,3127
23.092,-2.020,3127
23.096,-2.163,3127
23.100,-2.123,3127
23.104,-1.890,3127
23.108,-1.528,3127
23.112,-1.045,3114
23.116,-0.530,3114
23.120,0.613,3114
23.124,0.980,3114
23.128,1.323,3114
23.132,1.417,3114
23.136,1.340,3114
23.140,1.133,3114
23.144,0.748,3114
23.148,0.278,3125
23.152,-0.228,3125
23.156,-0.765,3125
23.160,-1.288,3125
23.164,-1.725,3125
23.168,-2.020,3125
23.172,-2.143,3125
23.176,-2.107,3125
23.180,-1.870,3125
23.184,-1.508,3125
23.188,-1.032,3105
23.192,-0.512,3105
23.196,0.028,3105
23.200,1.052,3105
23.204,1.300,3105
23.208,1.423,3105
23.212,1.377,3105
23.216,1.147,3105
23.220,0.767,3105
23.224,0.292,3098
23.228,-0.230,3098
23.232,-0.752,3098
23.236,-1.292,3098
23.240,-1.738,3098
23.244,-2.038,3098
23.248,-2.167,3098
23.252,-2.135,3098
23.256,-1.903,3098
23.260,-1.530,3098
23.264,-1.050,3109
23.268,-0.527,3109
23.272,-0.007,3109
23.276,0.532,3109
23.280,1.335,3109
23.284,1.425,3109
23.288,1.390,3109
23.292,1.153,3109
23.296,0.767,3109
23.300,0.292,3122
23.304,-0.233,3122
23.308,-0.752,3122
23.312,-1.292,3122
23.316,-1.742,3122
23.320,-2.055,3122
23.324,-2.188,3122
23.328,-2.152,3122
23.332,-1.940,3122
23.336,-1.567,3122
23.340,-1.090,3125
23.344,-0.570,3125
23.348,-0.043,3125
23.352,0.512,3125
23.356,0.943,3125
23.360,1.413,3125
23.364,1.373,3125
23.368,1.153,3125
23.372,0.757,3125
23.376,0.292,3122
23.380,-0.233,3122
23.384,-0.767,3122
23.388,-1.298,3122
23.392,-1.750,3122
23.396,-2.053,3122
23.400,-2.190,3122
23.404,-2.163,3122
23.408,-1.948,3122
23.412,-1.580,3122
23.416,-1.093,3117
23.420,-0.578,3117
23.424,-0.035,3117
23.428,0.497,3117
23.432,0.938,3117
23.436,1.250,3117
23.440,1.327,3117
23.444,1.107,3117
23.448,0.752,3117
23.452,0.292,3125
23.456,-0.233,3125
23.460,-0.748,3125
23.464,-1.262,3125
23.468,-1.715,3125
23.472,-2.020,3125
23.476,-2.163,3125
23.480,-2.127,3125
23.484,-1.907,3125
23.488,-1.540,3125
23.492,-1.065,3130
23.496,-0.550,3130
23.500,-0.033,3130
23.504,0.500,3130
23.508,0.940,3130
23.512,1.252,3130
23.516,1.413,3130
23.520,1.095,3130
23.524,0.757,3130
23.528,0.305,3134
23.532,-0.212,3134
23.536,-0.740,3134
23.540,-1.248,3134
23.544,-1.705,3134
23.548,-2.018,3134
23.552,-2.167,3134
23.556,-2.138,3134
23.560,-1.930,3134
23.564,-1.565,3134
23.568,-1.090,3132
23.572,-0.573,3132
23.576,-0.048,3132
23.580,0.468,3132
23.584,0.930,3132
23.588,1.252,3132
23.592,1.413,3132
23.596,1.393,3132
23.600,0.750,3132
23.604,0.315,3133
23.608,-0.723,3133
23.612,-1.205,3133
23.616,-1.653,3133
23.620,-1.965,3133
23.624,-2.110,3133
23.628,-2.090,3133
23.632,-1.883,3133
23.636,-1.520,3133
23.640,-1.050,3132
23.644,-0.527,3132
23.648,-0.018,3132
23.652,0.512,3132
23.656,0.973,3132
23.660,1.298,3132
23.664,1.423,3132
23.668,1.397,3132
23.672,1.173,3132
23.676,0.797,3132
23.680,-0.273,3140
23.684,-1.262,3140
23.688,-1.708,3140
23.692,-2.022,3140
23.696,-2.170,3140
23.700,-2.147,3140
23.704,-1.938,3140
23.708,-1.570,3140
23.712,-1.100,3139
23.716,-0.583,3139
23.720,-0.058,3139
23.724,0.472,3139
23.728,0.938,3139
23.732,1.260,3139
23.736,1.407,3139
23.740,1.377,3139
23.744,1.153,3139
23.748,0.780,3139
23.752,0.307,3128
23.756,-0.223,3128
23.760,-1.353,3128
23.764,-1.765,3128
23.768,-2.027,3128
23.772,-2.165,3128
23.776,-2.140,3128
23.780,-1.923,3128
23.784,-1.550,3128
23.788,-1.085,3132
23.792,-0.568,3132
23.796,-0.060,3132
23.800,0.463,3132
23.804,0.932,3132
23.808,1.252,3132
23.812,1.413,3132
23.816,1.387,3132
23.820,1.177,3132
23.824,0.818,3132
23.828,0.343,3120
23.832,-0.188,3120
23.836,-0.710,3120
23.840,-1.775,3120
23.844,-2.022,3120
23.848,-2.172,3120
23.852,-2.152,3120
23.856,-1.962,3120
23.860,-1.607,3120
23.864,-1.133,3108
23.868,-0.613,3108
23.872,-0.092,3108
23.876,0.432,3108
23.880,0.902,3108
23.884,1.232,3108
23.888,1.407,3108
23.892,1.397,3108
23.896,1.192,3108
23.900,0.848,3108
23.904,0.378,3127
23.908,-0.142,3127
23.912,-0.672,3127
23.916,-1.202,3127
23.920,-2.022,3127
23.924,-2.143,3127
23.928,-2.127,3127
23.932,-1.923,3127
23.936,-1.562,3127
23.940,-1.085,3119
23.944,-0.573,3119
23.948,-0.052,3119
23.952,0.465,3119
23.956,0.938,3119
23.960,1.258,3119
23.964,1.420,3119
23.968,1.417,3119
23.972,1.208,3119
23.976,0.853,3119
23.980,0.388,3122
23.984,-0.138,3122
23.988,-0.670,3122
23.992,-1.200,3122
23.996,-1.673,3122
24.000,-2.167,3122
24.004,-2.132,3122
24.008,-1.948,3122
24.012,-1.583,3122
24.016,-1.123,3122
24.020,-0.608,3127
24.024,-0.062,3127
24.028,0.463,3127
24.032,0.932,3127
24.036,1.272,3127
24.040,1.458,3127
24.044,1.452,3127
24.048,1.238,3127
24.052,0.897,3127
24.056,0.427,3127
24.060,-0.098,3118
24.064,-0.652,3118
24.068,-1.177,3118
24.072,-1.653,3118
24.076,-1.980,3118
24.080,-2.120,3118
24.084,-1.948,3118
24.088,-1.610,3118
24.092,-1.145,3118
24.096,-0.642,3113
24.100,-0.098,3113
24.104,0.420,3113
24.108,0.897,3113
24.112,1.232,3113
24.116,1.400,3113
24.120,1.387,3113
24.124,1.185,3113
24.128,0.835,3113
24.132,0.367,3113
24.136,-0.142,3116
24.140,-0.695,3116
24.144,-1.212,3116
24.148,-1.688,3116
24.152,-2.018,3116
24.156,-2.178,3116
24.160,-1.907,3116
24.164,-1.620,3116
24.168,-1.163,3116
24.172,-0.657,3111
24.176,-0.122,3111
24.180,0.412,3111
24.184,0.885,3111
24.188,1.222,3111
24.192,1.393,3111
24.196,1.395,3111
24.200,1.208,3111
24.204,0.863,3111
24.208,0.398,3111
24.212,-0.102,3110
24.216,-0.657,3110
24.220,-1.173,3110
24.224,-1.647,3110
24.228,-1.978,3110
24.232,-2.138,3110
24.236,-2.138,3110
24.240,-1.522,3110
24.244,-1.133,3110
24.248,-0.623,3096
24.252,-0.098,3096
24.256,0.420,3096
24.260,0.895,3096
24.264,1.235,3096
24.268,1.407,3096
24.272,1.393,3096
24.276,1.192,3096
24.280,0.838,3096
24.284,0.378,3096
24.288,-0.147,3124
24.292,-0.703,3124
24.296,-1.220,3124
24.300,-1.698,3124
24.304,-2.027,3124
24.308,-2.190,3124
24.312,-2.188,3124
24.316,-1.995,3124
24.320,-1.097,3114
24.324,-0.092,3114
24.328,0.407,3114
24.332,0.892,3114
24.336,1.232,3114
24.340,1.410,3114
24.344,1.413,3114
24.348,1.220,3114
24.352,0.877,3114
24.356,0.422,3114
24.360,-0.085,3131
24.364,-0.627,3131
24.368,-1.153,3131
24.372,-1.643,3131
24.376,-1.978,3131
24.380,-2.143,3131
24.384,-2.132,3131
24.388,-1.948,3131
24.392,-1.613,3131
24.396,-1.150,3131
24.400,-0.072,3117
24.404,0.865,3117
24.408,1.188,3117
24.412,1.367,3117
24.416,1.373,3117
24.420,1.173,3117
24.424,0.835,3117
24.428,0.380,3117
24.432,-0.128,3119
24.436,-0.667,3119
24.440,-1.183,3119
24.444,-1.653,3119
24.448,-1.978,3119
24.452,-2.143,3119
24.456,-2.143,3119
24.460,-1.952,3119
24.464,-1.617,3119
24.468,-1.145,3119
24.472,-0.642,3120
24.476,-0.107,3120
24.480,0.948,3120
24.484,1.222,3120
24.488,1.397,3120
24.492,1.410,3120
24.496,1.220,3120
24.500,0.877,3120
24.504,0.407,3120
24.508,-0.072,3130
24.512,-0.618,3130
24.516,-1.140,3130
24.520,-1.623,3130
24.524,-1.972,3130
24.528,-2.143,3130
24.532,-2.147,3130
24.536,-1.962,3130
24.540,-1.617,3130
24.544,-1.147,3130
24.548,-0.640,3131
24.552,-0.098,3131
24.556,0.438,3131
24.560,1.327,3131
24.564,1.460,3131
24.568,1.458,3131
24.572,1.268,3131
24.576,0.910,3131
24.580,0.465,3131
24.584,-0.058,3126
24.588,-0.603,3126
24.592,-1.125,3126
24.596,-1.607,3126
24.600,-1.952,3126
24.604,-2.135,3126
24.608,-2.145,3126
24.612,-1.970,3126
24.616,-1.630,3126
24.620,-1.165,3126
24.624,-0.665,3143
24.628,-0.122,3143
24.632,0.398,3143
24.636,0.868,3143
24.640,1.417,3143
24.644,1.410,3143
24.648,1.225,3143
24.652,0.885,3143
24.656,0.430,3143
24.660,-0.072,3147
24.664,-0.615,3147
24.668,-1.143,3147
24.672,-1.623,3147
24.676,-1.978,3147
24.680,-2.160,3147
24.684,-2.178,3147
24.688,-1.992,3147
24.692,-1.660,3147
24.696,-1.192,3147
24.700,-0.693,3128
24.704,-0.152,3128
24.708,0.378,3128
24.712,0.860,3128
24.716,1.215,3128
24.720,1.397,3128
24.724,1.230,3128
24.728,0.897,3128
24.732,0.438,3128
24.736,-0.068,3125
24.740,-0.613,3125
24.744,-1.143,3125
24.748,-1.625,3125
24.752,-1.982,3125
24.756,-2.163,3125
24.760,-2.175,3125
24.764,-1.992,3125
24.768,-1.657,3125
24.772,-1.190,3125
24.776,-0.695,3134
24.780,-0.175,3134
24.784,0.357,3134
24.788,0.838,3134
24.792,1.190,3134
24.796,1.380,3134
24.800,1.175,3134
24.804,0.887,3134
24.808,0.427,3134
24.812,-0.080,3123
24.816,-0.613,3123
24.820,-1.147,3123
24.824,-1.640,3123
24.828,-1.980,3123
24.832,-2.163,3123
24.836,-2.178,3123
24.840,-2.007,3123
24.844,-1.677,3123
24.848,-1.218,3123
24.852,-0.713,3126
24.856,-0.190,3126
24.860,0.345,3126
24.864,0.828,3126
24.868,1.188,3126
24.872,1.387,3126
24.876,1.407,3126
24.880,0.833,3126
24.884,0.458,3126
24.888,-0.045,3119
24.892,-0.615,3119
24.896,-1.113,3119
24.900,-1.603,3119
24.904,-1.940,3119
24.908,-2.127,3119
24.912,-2.130,3119
24.916,-1.950,3119
24.920,-1.627,3119
24.924,-1.170,3119
24.928,-0.670,3137
24.932,-0.142,3137
24.936,0.372,3137
24.940,0.845,3137
24.944,1.192,3137
24.948,1.380,3137
24.952,1.393,3137
24.956,1.218,3137
24.960,0.370,3137
24.964,-0.062,3124
24.968,-0.603,3124
24.972,-1.127,3124
24.976,-1.613,3124
24.980,-1.962,3124
24.984,-2.132,3124
24.988,-2.152,3124
24.992,-1.982,3124
24.996,-1.663,3124
25.000,-1.208,3124
25.004,-0.703,3124
25.008,-0.193,3138
25.012,0.347,3138
25.016,0.820,3138
25.020,1.183,3138
25.024,1.380,3138
25.028,1.395,3138
25.032,1.218,3138
25.036,0.877,3138
25.040,-0.168,3116
25.044,-1.150,3116
25.048,-1.630,3116
25.052,-1.982,3116
25.056,-2.163,3116
25.060,-2.178,3116
25.064,-2.007,3116
25.068,-1.688,3116
25.072,-1.222,3116
25.076,-0.728,3116
25.080,-0.205,3121
25.084,0.333,3121
25.088,0.818,3121
25.092,1.177,3121
25.096,1.383,3121
25.100,1.407,3121
25.104,1.232,3121
25.108,0.912,3121
25.112,0.470,3121
25.116,-0.028,3121
25.120,-1.175,3123
25.124,-1.950,3123
25.128,-2.135,3123
25.132,-2.167,3123
25.136,-2.007,3123
25.140,-1.700,3123
25.144,-1.248,3123
25.148,-0.752,3123
25.152,-0.233,3100
25.156,0.297,3100
25.160,0.775,3100
25.164,1.143,3100
25.168,1.347,3100
25.172,1.383,3100
25.176,1.218,3100
25.180,0.897,3100
25.184,0.458,3100
25.188,-0.048,3100
25.192,-0.568,3108
25.196,-1.100,3108
25.200,-1.975,3108
25.204,-2.115,3108
25.208,-2.138,3108
25.212,-1.970,3108
25.216,-1.647,3108
25.220,-1.188,3108
25.224,-0.682,3108
25.228,-0.175,3117
25.232,0.367,3117
25.236,0.843,3117
25.240,1.208,3117
25.244,1.407,3117
25.248,1.427,3117
25.252,1.252,3117
25.256,0.925,3117
25.260,0.470,3117
25.264,-0.030,3117
25.268,-0.565,3108
25.272,-1.103,3108
25.276,-1.583,3108
25.280,-2.147,3108
25.284,-2.167,3108
25.288,-2.015,3108
25.292,-1.692,3108
25.296,-1.248,3108
25.300,-0.738,3108
25.304,-0.217,3123
25.308,0.338,3123
25.312,0.792,3123
25.316,1.173,3123
25.320,1.377,3123
25.324,1.413,3123
25.328,1.250,3123
25.332,0.930,3123
25.336,0.500,3123
25.340,-0.015,3123
25.344,-0.540,3113
25.348,-1.087,3113
25.352,-1.573,3113
25.356,-1.942,3113
25.360,-2.180,3113
25.364,-1.978,3113
25.368,-1.677,3113
25.372,-1.235,3113
25.376,-0.743,3113
25.380,-0.230,3120
25.384,0.307,3120
25.388,0.787,3120
25.392,1.170,3120
25.396,1.383,3120
25.400,1.417,3120
25.404,1.252,3120
25.408,0.938,3120
25.412,0.505,3120
25.416,-0.018,3120
25.420,-0.545,3121
25.424,-1.087,3121
25.428,-1.567,3121
25.432,-1.938,3121
25.436,-2.130,3121
25.440,-1.965,3121
25.444,-1.692,3121
25.448,-1.248,3121
25.452,-0.748,3121
25.456,-0.225,3105
25.460,0.310,3105
25.464,0.790,3105
25.468,1.167,3105
25.472,1.373,3105
25.476,1.413,3105
25.480,1.250,3105
25.484,0.930,3105
25.488,0.500,3105
25.492,-0.013,3105
25.496,-0.532,3135
25.500,-1.073,3135
25.504,-1.552,3135
25.508,-1.933,3135
25.512,-2.127,3135
25.516,-2.163,3135
25.520,-1.627,3135
25.524,-1.215,3135
25.528,-0.713,3135
25.532,-0.228,3142
25.536,0.393,3142
25.540,0.855,3142
25.544,1.185,3142
25.548,1.407,3142
25.552,1.455,3142
25.556,1.302,3142
25.560,0.978,3142
25.564,0.530,3142
25.568,0.022,3142
25.572,-0.522,3118
25.576,-1.060,3118
25.580,-1.550,3118
25.584,-1.930,3118
25.588,-2.125,3118
25.592,-2.163,3118
25.596,-2.013,3118
25.600,-1.173,3118
25.604,-0.752,3118
25.608,-0.233,3144
25.612,0.307,3144
25.616,0.795,3144
25.620,1.177,3144
25.624,1.387,3144
25.628,1.427,3144
25.632,1.272,3144
25.636,0.978,3144
25.640,0.537,3144
25.644,0.037,3144
25.648,-0.500,3126
25.652,-1.048,3126
25.656,-1.528,3126
25.660,-1.893,3126
25.664,-2.103,3126
25.668,-2.143,3126
25.672,-2.007,3126
25.676,-1.702,3126
25.680,-0.693,3126
25.684,-0.253,3133
25.688,0.312,3133
25.692,0.767,3133
25.696,1.143,3133
25.700,1.355,3133
25.704,1.407,3133
25.708,1.248,3133
25.712,0.932,3133
25.716,0.505,3133
25.720,0.018,3133
25.724,-0.507,3118
25.728,-1.058,3118
25.732,-1.548,3118
25.736,-1.927,3118
25.740,-2.138,3118
25.744,-2.172,3118
25.748,-2.033,3118
25.752,-1.738,3118
25.756,-1.312,3118
25.760,-0.203,3136
25.764,0.752,3136
25.768,1.137,3136
25.772,1.353,3136
25.776,1.400,3136
25.780,1.252,3136
25.784,0.948,3136
25.788,0.522,3136
25.792,0.028,3136
25.796,-0.512,3135
25.800,-1.058,3135
25.804,-1.548,3135
25.808,-1.923,3135
25.812,-2.127,3135
25.816,-2.152,3135
25.820,-2.013,3135
25.824,-1.698,3135
25.828,-1.252,3135
25.832,-0.745,3135
25.836,-0.233,3133
25.840,0.932,3133
25.844,1.185,3133
25.848,1.387,3133
25.852,1.430,3133
25.856,1.298,3133
25.860,0.980,3133
25.864,0.537,3133
25.868,0.048,3133
25.872,-0.495,3124
25.876,-1.045,3124
25.880,-1.535,3124
25.884,-1.905,3124
25.888,-2.130,3124
25.892,-2.163,3124
25.896,-2.018,3124
25.900,-1.708,3124
25.904,-1.268,3124
25.908,-0.767,3124
25.912,-0.253,3140
25.916,0.275,3140
25.920,1.210,3140
25.924,1.385,3140
25.928,1.427,3140
25.932,1.298,3140
25.936,0.988,3140
25.940,0.547,3140
25.944,0.052,3140
25.948,-0.487,3125
25.952,-1.030,3125
25.956,-1.528,3125
25.960,-1.905,3125
25.964,-2.110,3125
25.968,-2.163,3125
25.972,-2.018,3125
25.976,-1.708,3125
25.980,-1.262,3125
25.984,-0.770,3125
25.988,-0.253,3115
25.992,0.278,3115
25.996,0.767,3115
26.000,1.390,3115
26.004,1.423,3115
26.008,1.298,3115
26.012,0.990,3115
26.016,0.552,3115
26.020,0.062,3115
26.024,-0.465,3115
26.028,-1.010,3122
26.032,-1.530,3122
26.036,-1.897,3122
26.040,-2.123,3122
26.044,-2.172,3122
26.048,-2.045,3122
26.052,-1.712,3122
26.056,-1.308,3122
26.060,-0.802,3122
26.064,-0.273,3122
26.068,0.258,3119
26.072,0.770,3119
26.076,1.150,3119
26.080,1.413,3119
26.084,1.252,3119
26.088,0.978,3119
26.092,0.535,3119
26.096,0.052,3119
26.100,-0.492,3119
26.104,-1.028,3117
26.108,-1.532,3117
26.112,-1.903,3117
26.116,-2.120,3117
26.120,-2.165,3117
26.124,-2.027,3117
26.128,-1.732,3117
26.132,-1.310,3117
26.136,-0.802,3117
26.140,-0.287,3117
26.144,0.253,3123
26.148,0.752,3123
26.152,1.137,3123
26.156,1.357,3123
26.160,1.248,3123
26.164,0.998,3123
26.168,0.568,3123
26.172,0.087,3123
26.176,-0.453,3123
26.180,-0.993,3107
26.184,-1.502,3107
26.188,-1.883,3107
26.192,-2.103,3107
26.196,-2.147,3107
26.200,-2.020,3107
26.204,-1.718,3107
26.208,-1.292,3107
26.212,-0.767,3107
26.216,-0.253,3107
26.220,0.278,3108
26.224,0.787,3108
26.228,1.177,3108
26.232,1.397,3108
26.236,1.455,3108
26.240,0.927,3108
26.244,0.570,3108
26.248,0.072,3108
26.252,-0.460,3108
26.256,-1.010,3107
26.260,-1.530,3107
26.264,-1.907,3107
26.268,-2.127,3107
26.272,-2.170,3107
26.276,-2.030,3107
26.280,-1.732,3107
26.284,-1.308,3107
26.288,-0.807,3107
26.292,-0.292,3107
26.296,0.233,3113
26.300,0.738,3113
26.304,1.117,3113
26.308,1.357,3113
26.312,1.423,3113
26.316,1.298,3113
26.320,0.477,3113
26.324,0.068,3113
26.328,-0.463,3113
26.332,-1.012,3113
26.336,-1.522,3113
26.340,-1.900,3113
26.344,-2.123,3113
26.348,-2.175,3113
26.352,-2.047,3113
26.356,-1.765,3113
26.360,-1.333,3113
26.364,-0.828,3113
26.368,-0.300,3113
26.372,0.230,3129
