Czas_Wzgledny(s),EKG_Surowe(mV),PPG_Surowe(ADC)
0.000,0.098,3122
0.002,0.425,3122
0.004,0.765,3122
0.006,0.980,3122
0.008,1.060,3125
0.010,0.993,3125
0.012,0.772,3125
0.014,0.460,3125
0.016,0.077,3125
0.018,-0.347,3125
0.020,-0.780,3125
0.022,-1.202,3125
0.024,-1.548,3125
0.026,-1.772,3125
0.028,-1.857,3086
0.030,-1.805,3086
0.032,-1.603,3086
0.034,-1.262,3086
0.036,-0.865,3086
0.038,-0.448,3086
0.040,0.468,3086
0.042,0.752,3086
0.044,0.975,3086
0.046,1.065,3119
0.048,1.008,3119
0.050,0.812,3119
0.052,0.472,3119
0.054,0.092,3119
0.056,-0.338,3119
0.058,-0.777,3119
0.060,-1.202,3119
0.062,-1.545,3119
0.064,-1.770,3119
0.066,-1.853,3134
0.068,-1.788,3134
0.070,-1.583,3134
0.072,-1.252,3134
0.074,-0.863,3134
0.076,-0.432,3134
0.078,-0.007,3134
0.080,0.812,3134
0.082,0.983,3134
0.084,1.062,3134
0.086,0.998,3134
0.088,0.787,3134
0.090,0.468,3134
0.092,0.077,3134
0.094,-0.330,3134
0.096,-0.765,3134
0.098,-1.177,3134
0.100,-1.522,3134
0.102,-1.738,3134
0.104,-1.827,3143
0.106,-1.778,3143
0.108,-1.577,3143
0.110,-1.252,3143
0.112,-0.868,3143
0.114,-0.453,3143
0.116,-0.020,3143
0.118,0.398,3143
0.120,0.990,3143
0.122,1.060,3140
0.124,1.012,3140
0.126,0.820,3140
0.128,0.502,3140
0.130,0.113,3140
0.132,-0.302,3140
0.134,-0.738,3140
0.136,-1.163,3140
0.138,-1.502,3140
0.140,-1.722,3140
0.142,-1.810,3086
0.144,-1.760,3086
0.146,-1.552,3086
0.148,-1.225,3086
0.150,-0.843,3086
0.152,-0.420,3086
0.154,0.018,3086
0.156,0.417,3086
0.158,0.752,3086
0.160,1.058,3124
0.162,0.792,3124
0.164,0.472,3124
0.166,0.092,3124
0.168,-0.343,3124
0.170,-0.772,3124
0.172,-1.183,3124
0.174,-1.528,3124
0.176,-1.738,3124
0.178,-1.827,3132
0.180,-1.772,3132
0.182,-1.573,3132
0.184,-1.250,3132
0.186,-0.863,3132
0.188,-0.445,3132
0.190,-0.013,3132
0.192,0.407,3132
0.194,0.752,3132
0.196,0.993,3132
0.198,1.075,3137
0.200,0.775,3137
0.202,0.510,3137
0.204,0.128,3137
0.206,-0.370,3137
0.208,-0.728,3137
0.210,-1.140,3137
0.212,-1.492,3137
0.214,-1.702,3137
0.216,-1.802,3127
0.218,-1.742,3127
0.220,-1.552,3127
0.222,-1.238,3127
0.224,-0.860,3127
0.226,-0.432,3127
0.228,-0.007,3127
0.230,0.417,3127
0.232,0.767,3127
0.234,0.993,3127
0.236,1.077,3133
0.238,1.018,3133
0.240,0.427,3133
0.242,0.100,3133
0.244,-0.330,3133
0.246,-0.762,3133
0.248,-1.185,3133
0.250,-1.532,3133
0.252,-1.745,3133
0.254,-1.833,3124
0.256,-1.782,3124
0.258,-1.573,3124
0.260,-1.245,3124
0.262,-0.853,3124
0.264,-0.427,3124
0.266,-0.013,3124
0.268,0.410,3124
0.270,0.743,3124
0.272,0.973,3124
0.274,1.065,3118
0.276,1.008,3118
0.278,0.797,3118
0.280,0.022,3118
0.282,-0.362,3118
0.284,-0.785,3118
0.286,-1.183,3118
0.288,-1.528,3118
0.290,-1.740,3118
0.292,-1.843,3127
0.294,-1.780,3127
0.296,-1.577,3127
0.298,-1.255,3127
0.300,-0.865,3127
0.302,-0.450,3127
0.304,-0.028,3127
0.306,0.398,3127
0.308,0.743,3127
0.310,0.978,3127
0.312,1.060,3116
0.314,1.002,3116
0.316,0.792,3116
0.318,0.475,3116
0.320,-0.403,3116
0.322,-0.755,3116
0.324,-1.175,3116
0.326,-1.528,3116
0.328,-1.732,3116
0.330,-1.823,3116
0.332,-1.780,3119
0.334,-1.573,3119
0.336,-1.252,3119
0.338,-0.868,3119
0.340,-0.453,3119
0.342,-0.018,3119
0.344,0.398,3119
0.346,0.743,3119
0.348,0.980,3119
0.350,1.062,3119
0.352,0.998,3117
0.354,0.790,3117
0.356,0.468,3117
0.358,0.075,3117
0.360,-0.860,3117
0.362,-1.202,3117
0.364,-1.548,3117
0.366,-1.768,3117
0.368,-1.857,3117
0.370,-1.792,3104
0.372,-1.585,3104
0.374,-1.260,3104
0.376,-0.868,3104
0.378,-0.450,3104
0.380,-0.010,3104
0.382,0.422,3104
0.384,0.767,3104
0.386,1.002,3104
0.388,1.087,3104
0.390,1.015,3107
0.392,0.797,3107
0.394,0.477,3107
0.396,0.087,3107
0.398,-0.350,3107
0.400,-1.337,3107
0.402,-1.573,3107
0.404,-1.790,3107
0.406,-1.873,3107
0.408,-1.815,3108
0.410,-1.617,3108
0.412,-1.295,3108
0.414,-0.887,3108
0.416,-0.453,3108
0.418,-0.013,3108
0.420,0.422,3108
0.422,0.772,3108
0.424,0.993,3108
0.426,1.070,3108
0.428,1.015,3111
0.430,0.787,3111
0.432,0.463,3111
0.434,0.068,3111
0.436,-0.362,3111
0.438,-0.802,3111
0.440,-1.600,3111
0.442,-1.785,3111
0.444,-1.850,3111
0.446,-1.788,3114
0.448,-1.575,3114
0.450,-1.252,3114
0.452,-0.853,3114
0.454,-0.432,3114
0.456,-0.007,3114
0.458,0.417,3114
0.460,0.760,3114
0.462,0.985,3114
0.464,1.077,3114
0.466,1.025,3106
0.468,0.823,3106
0.470,0.502,3106
0.472,0.107,3106
0.474,-0.325,3106
0.476,-0.748,3106
0.478,-1.167,3106
0.480,-1.775,3106
0.482,-1.827,3106
0.484,-1.765,3131
0.486,-1.562,3131
0.488,-1.238,3131
0.490,-0.853,3131
0.492,-0.422,3131
0.494,0.018,3131
0.496,0.427,3131
0.498,0.777,3131
0.500,1.008,3131
0.502,1.093,3131
0.504,1.035,3115
0.506,0.828,3115
0.508,0.502,3115
0.510,0.102,3115
0.512,-0.343,3115
0.514,-0.777,3115
0.516,-1.208,3115
0.518,-1.562,3115
0.520,-1.857,3101
0.522,-1.583,3101
0.524,-1.292,3101
0.526,-0.843,3101
0.528,-0.445,3101
0.530,-0.015,3101
0.532,0.417,3101
0.534,0.772,3101
0.536,1.010,3101
0.538,1.097,3101
0.540,1.048,3078
0.542,0.845,3078
0.544,0.522,3078
0.546,0.110,3078
0.548,-0.323,3078
0.550,-0.762,3078
0.552,-1.177,3078
0.554,-1.532,3078
0.556,-1.748,3078
0.558,-1.847,3078
0.560,-1.560,3129
0.562,-0.855,3129
0.564,-0.415,3129
0.566,0.022,3129
0.568,0.427,3129
0.570,0.745,3129
0.572,0.983,3129
0.574,1.070,3129
0.576,1.020,3135
0.578,0.820,3135
0.580,0.500,3135
0.582,0.098,3135
0.584,-0.305,3135
0.586,-0.743,3135
0.588,-1.160,3135
0.590,-1.508,3135
0.592,-1.732,3135
0.594,-1.830,3135
0.596,-1.780,3114
0.598,-1.570,3114
0.600,-0.777,3114
0.602,-0.352,3114
0.604,0.022,3114
0.606,0.468,3114
0.608,0.785,3114
0.610,1.018,3114
0.612,1.103,3114
0.614,1.052,3139
0.616,0.848,3139
0.618,0.532,3139
0.620,0.133,3139
0.622,-0.290,3139
0.624,-0.738,3139
0.626,-1.150,3139
0.628,-1.505,3139
0.630,-1.722,3139
0.632,-1.817,3139
0.634,-1.772,3136
0.636,-1.567,3136
0.638,-1.252,3136
0.640,-0.375,3136
0.642,-0.013,3136
0.644,0.417,3136
0.646,0.767,3136
0.648,0.993,3136
0.650,1.077,3136
0.652,1.028,3129
0.654,0.838,3129
0.656,0.517,3129
0.658,0.117,3129
0.660,-0.325,3129
0.662,-0.752,3129
0.664,-1.175,3129
0.666,-1.528,3129
0.668,-1.732,3129
0.670,-1.823,3129
0.672,-1.768,3138
0.674,-1.562,3138
0.676,-1.238,3138
0.678,-0.853,3138
0.680,0.087,3138
0.682,0.430,3138
0.684,0.777,3138
0.686,0.993,3138
0.688,1.077,3138
0.690,1.022,3093
0.692,0.820,3093
0.694,0.502,3093
0.696,0.102,3093
0.698,-0.333,3093
0.700,-0.767,3093
0.702,-1.183,3093
0.704,-1.538,3093
0.706,-1.772,3093
0.708,-1.857,3093
0.710,-1.808,3121
0.712,-1.617,3121
0.714,-1.300,3121
0.716,-0.902,3121
0.718,-0.482,3121
0.720,0.453,3121
0.722,0.990,3121
0.724,1.077,3121
0.726,1.038,3116
0.728,0.838,3116
0.730,0.537,3116
0.732,0.150,3116
0.734,-0.273,3116
0.736,-0.710,3116
0.738,-1.133,3116
0.740,-1.472,3116
0.742,-1.698,3116
0.744,-1.790,3116
0.746,-1.748,3137
0.748,-1.575,3137
0.750,-1.258,3137
0.752,-0.887,3137
0.754,-0.482,3137
0.756,-0.043,3137
0.758,0.393,3137
0.760,1.020,3137
0.762,1.103,3137
0.764,1.060,3124
0.766,0.875,3124
0.768,0.552,3124
0.770,0.175,3124
0.772,-0.253,3124
0.774,-0.710,3124
0.776,-1.107,3124
0.778,-1.472,3124
0.780,-1.708,3124
0.782,-1.820,3124
0.784,-1.792,3133
0.786,-1.607,3133
0.788,-1.308,3133
0.790,-0.925,3133
0.792,-0.505,3133
0.794,-0.083,3133
0.796,0.350,3133
0.798,0.718,3133
0.800,1.067,3133
0.802,1.028,3129
0.804,0.825,3129
0.806,0.537,3129
0.808,0.150,3129
0.810,-0.263,3129
0.812,-0.698,3129
0.814,-1.123,3129
0.816,-1.495,3129
0.818,-1.738,3129
0.820,-1.855,3129
0.822,-1.825,3136
0.824,-1.650,3136
0.826,-1.353,3136
0.828,-0.968,3136
0.830,-0.540,3136
0.832,-0.102,3136
0.834,0.318,3136
0.836,0.690,3136
0.838,0.930,3136
0.840,0.988,3111
0.842,0.500,3111
0.844,0.150,3111
0.846,-0.253,3111
0.848,-0.690,3111
0.850,-1.095,3111
0.852,-1.462,3111
0.854,-1.695,3111
0.856,-1.812,3111
0.858,-1.778,3111
0.860,-1.613,3146
0.862,-1.308,3146
0.864,-0.927,3146
0.866,-0.527,3146
0.868,-0.095,3146
0.870,0.312,3146
0.872,0.672,3146
0.874,0.910,3146
0.876,1.028,3146
0.878,0.995,3146
0.880,0.453,3106
0.882,-0.273,3106
0.884,-0.708,3106
0.886,-1.107,3106
0.888,-1.488,3106
0.890,-1.725,3106
0.892,-1.830,3106
0.894,-1.808,3106
0.896,-1.627,3110
0.898,-1.327,3110
0.900,-0.948,3110
0.902,-0.537,3110
0.904,-0.107,3110
0.906,0.307,3110
0.908,0.672,3110
0.910,0.915,3110
0.912,1.032,3110
0.914,1.005,3110
0.916,0.823,3111
0.918,0.515,3111
0.920,-0.362,3111
0.922,-0.710,3111
0.924,-1.133,3111
0.926,-1.492,3111
0.928,-1.730,3111
0.930,-1.840,3111
0.932,-1.808,3111
0.934,-1.627,3097
0.936,-1.323,3097
0.938,-0.932,3097
0.940,-0.522,3097
0.942,-0.092,3097
0.944,0.338,3097
0.946,0.690,3097
0.948,0.932,3097
0.950,1.038,3097
0.952,1.015,3097
0.954,0.848,3104
0.956,0.537,3104
0.958,0.155,3104
0.960,-0.762,3104
0.962,-1.103,3104
0.964,-1.500,3104
0.966,-1.712,3104
0.968,-1.823,3104
0.970,-1.808,3104
0.972,-1.635,3108
0.974,-1.333,3108
0.976,-0.938,3108
0.978,-0.547,3108
0.980,-0.113,3108
0.982,0.297,3108
0.984,0.662,3108
0.986,0.897,3108
0.988,1.015,3108
0.990,0.983,3108
0.992,0.797,3115
0.994,0.497,3115
0.996,0.117,3115
0.998,-0.297,3115
1.000,-1.202,3115
1.002,-1.498,3115
1.004,-1.728,3115
1.006,-1.833,3115
1.008,-1.792,3115
1.010,-1.623,3124
1.012,-1.308,3124
1.014,-0.917,3124
1.016,-0.512,3124
1.018,-0.087,3124
1.020,0.343,3124
1.022,0.700,3124
1.024,0.938,3124
1.026,1.055,3124
1.028,1.025,3124
1.030,0.855,3100
1.032,0.550,3100
1.034,0.188,3100
1.036,-0.228,3100
1.038,-0.662,3100
1.040,-1.502,3100
1.042,-1.827,3100
1.044,-1.810,3100
1.046,-1.643,3107
1.048,-1.333,3107
1.050,-0.943,3107
1.052,-0.532,3107
1.054,-0.107,3107
1.056,0.310,3107
1.058,0.677,3107
1.060,0.927,3107
1.062,1.035,3107
1.064,1.018,3107
1.066,0.848,3137
1.068,0.537,3137
1.070,0.158,3137
1.072,-0.247,3137
1.074,-0.688,3137
1.076,-1.100,3137
1.078,-1.468,3137
1.080,-1.823,3137
1.082,-1.795,3137
1.084,-1.623,3128
1.086,-1.325,3128
1.088,-0.943,3128
1.090,-0.537,3128
1.092,-0.100,3128
1.094,0.333,3128
1.096,0.698,3128
1.098,0.943,3128
1.100,1.062,3128
1.102,1.035,3128
1.104,0.868,3107
1.106,0.573,3107
1.108,0.193,3107
1.110,-0.225,3107
1.112,-0.670,3107
1.114,-1.097,3107
1.116,-1.472,3107
1.118,-1.715,3107
1.120,-1.792,3107
1.122,-1.643,3155
1.124,-1.337,3155
1.126,-0.948,3155
1.128,-0.537,3155
1.130,-0.100,3155
1.132,0.333,3155
1.134,0.695,3155
1.136,0.938,3155
1.138,1.050,3155
1.140,1.028,3155
1.142,0.855,3124
1.144,0.550,3124
1.146,0.188,3124
1.148,-0.225,3124
1.150,-0.660,3124
1.152,-1.083,3124
1.154,-1.442,3124
1.156,-1.673,3124
1.158,-1.788,3124
1.160,-1.545,3117
1.162,-0.907,3117
1.164,-0.512,3117
1.166,-0.098,3117
1.168,0.333,3117
1.170,0.693,3117
1.172,0.932,3117
1.174,1.052,3117
1.176,1.032,3117
1.178,0.873,3115
1.180,0.578,3115
1.182,0.198,3115
1.184,-0.220,3115
1.186,-0.652,3115
1.188,-1.067,3115
1.190,-1.423,3115
1.192,-1.673,3115
1.194,-1.802,3115
1.196,-1.782,3115
1.198,-1.613,3132
1.200,-0.887,3132
1.202,-0.545,3132
1.204,-0.113,3132
1.206,0.307,3132
1.208,0.677,3132
1.210,0.927,3132
1.212,1.052,3132
1.214,1.035,3132
1.216,0.863,3122
1.218,0.557,3122
1.220,0.193,3122
1.222,-0.223,3122
1.224,-0.657,3122
1.226,-1.067,3122
1.228,-1.448,3122
1.230,-1.688,3122
1.232,-1.812,3122
1.234,-1.780,3122
1.236,-1.615,3148
1.238,-1.327,3148
1.240,-0.485,3148
1.242,-0.095,3148
1.244,0.347,3148
1.246,0.667,3148
1.248,0.907,3148
1.250,1.032,3148
1.252,1.018,3148
1.254,0.853,3123
1.256,0.547,3123
1.258,0.172,3123
1.260,-0.242,3123
1.262,-0.667,3123
1.264,-1.073,3123
1.266,-1.445,3123
1.268,-1.688,3123
1.270,-1.805,3123
1.272,-1.778,3123
1.274,-1.615,3119
1.276,-1.312,3119
1.278,-0.927,3119
1.280,-0.022,3119
1.282,0.333,3119
1.284,0.690,3119
1.286,0.940,3119
1.288,1.062,3119
1.290,1.038,3119
1.292,0.873,3116
1.294,0.573,3116
1.296,0.193,3116
1.298,-0.220,3116
1.300,-0.655,3116
1.302,-1.073,3116
1.304,-1.448,3116
1.306,-1.700,3116
1.308,-1.817,3116
1.310,-1.802,3116
1.312,-1.633,3120
1.314,-1.343,3120
1.316,-0.968,3120
1.318,-0.552,3120
1.320,0.372,3120
1.322,0.718,3120
1.324,0.927,3120
1.326,1.050,3120
1.328,1.022,3120
1.330,0.858,3105
1.332,0.542,3105
1.334,0.175,3105
1.336,-0.242,3105
1.338,-0.667,3105
1.340,-1.090,3105
1.342,-1.452,3105
1.344,-1.692,3105
1.346,-1.815,3105
1.348,-1.788,3105
1.350,-1.617,3105
1.352,-1.310,3103
1.354,-0.945,3103
1.356,-0.537,3103
1.358,-0.113,3103
1.360,0.718,3103
1.362,0.950,3103
1.364,1.038,3103
1.366,1.032,3103
1.368,0.860,3103
1.370,0.562,3114
1.372,0.170,3114
1.374,-0.242,3114
1.376,-0.670,3114
1.378,-1.093,3114
1.380,-1.468,3114
1.382,-1.712,3114
1.384,-1.830,3114
1.386,-1.812,3114
1.388,-1.653,3114
1.390,-1.363,3119
1.392,-0.965,3119
1.394,-0.550,3119
1.396,-0.125,3119
1.398,0.302,3119
1.400,0.953,3119
1.402,1.062,3119
1.404,1.048,3119
1.406,0.823,3099
1.408,0.177,3099
1.410,-0.203,3099
1.412,-0.645,3099
1.414,-1.065,3099
1.416,-1.448,3099
1.418,-1.698,3099
1.420,-1.823,3099
1.422,-1.808,3099
1.424,-1.643,3099
1.426,-1.343,3087
1.428,-0.945,3087
1.430,-0.540,3087
1.432,-0.113,3087
1.434,0.318,3087
1.436,0.688,3087
1.438,0.938,3087
1.440,1.030,3087
1.442,0.870,3087
1.444,0.580,3109
1.446,0.205,3109
1.448,-0.205,3109
1.450,-0.627,3109
1.452,-1.058,3109
1.454,-1.427,3109
1.456,-1.688,3109
1.458,-1.810,3109
1.460,-1.792,3109
1.462,-1.630,3109
1.464,-1.347,3118
1.466,-0.968,3118
1.468,-0.560,3118
1.470,-0.125,3118
1.472,0.302,3118
1.474,0.682,3118
1.476,0.938,3118
1.478,1.062,3118
1.480,0.850,3120
1.482,0.172,3120
1.484,-0.212,3120
1.486,-0.698,3120
1.488,-1.067,3120
1.490,-1.427,3120
1.492,-1.692,3120
1.494,-1.812,3120
1.496,-1.805,3120
1.498,-1.645,3120
1.500,-1.347,3130
1.502,-0.968,3130
1.504,-0.542,3130
1.506,-0.113,3130
1.508,0.307,3130
1.510,0.688,3130
1.512,0.930,3130
1.514,1.052,3130
1.516,1.032,3130
1.518,0.863,3130
1.520,0.128,3113
1.522,-0.670,3113
1.524,-1.087,3113
1.526,-1.468,3113
1.528,-1.708,3113
1.530,-1.827,3113
1.532,-1.810,3113
1.534,-1.645,3113
1.536,-1.347,3113
1.538,-0.970,3113
1.540,-0.545,3113
1.542,-0.087,3113
1.544,0.318,3113
1.546,0.698,3113
1.548,0.950,3113
1.550,1.077,3113
1.552,1.067,3113
1.554,0.902,3113
1.556,0.618,3122
1.558,0.235,3122
1.560,-0.682,3122
1.562,-1.035,3122
1.564,-1.417,3122
1.566,-1.683,3122
1.568,-1.820,3122
1.570,-1.817,3122
1.572,-1.660,3122
1.574,-1.373,3121
1.576,-1.002,3121
1.578,-0.583,3121
1.580,-0.142,3121
1.582,0.287,3121
1.584,0.662,3121
1.586,0.917,3121
1.588,1.060,3121
1.590,1.052,3121
1.592,0.897,3121
1.594,0.598,3125
1.596,0.133,3125
1.598,-0.188,3125
1.600,-1.105,3125
1.602,-1.420,3125
1.604,-1.673,3125
1.606,-1.808,3125
1.608,-1.792,3125
1.610,-1.633,3125
1.612,-1.345,3128
1.614,-0.968,3128
1.616,-0.565,3128
1.618,-0.133,3128
1.620,0.302,3128
1.622,0.677,3128
1.624,0.950,3128
1.626,1.077,3128
1.628,1.067,3128
1.630,0.905,3128
1.632,0.618,3122
1.634,0.233,3122
1.636,-0.177,3122
1.638,-0.608,3122
1.640,-1.468,3122
1.642,-1.673,3122
1.644,-1.812,3122
1.646,-1.802,3122
1.648,-1.647,3122
1.650,-1.355,3133
1.652,-0.978,3133
1.654,-0.578,3133
1.656,-0.142,3133
1.658,0.273,3133
1.660,0.657,3133
1.662,0.907,3133
1.664,1.032,3133
1.666,1.028,3133
1.668,0.858,3133
1.670,0.578,3151
1.672,0.198,3151
1.674,-0.207,3151
1.676,-0.645,3151
1.678,-1.058,3151
1.680,-1.698,3151
1.682,-1.788,3151
1.684,-1.778,3151
1.686,-1.623,3151
1.688,-1.337,3134
1.690,-0.965,3134
1.692,-0.570,3134
1.694,-0.133,3134
1.696,0.285,3134
1.698,0.652,3134
1.700,0.907,3134
1.702,1.032,3134
1.704,1.018,3134
1.706,0.863,3134
1.708,0.578,3146
1.710,0.193,3146
1.712,-0.210,3146
1.714,-0.640,3146
1.716,-1.062,3146
1.718,-1.423,3146
1.720,-1.820,3146
1.722,-1.847,3146
1.724,-1.577,3146
1.726,-1.333,3132
1.728,-0.983,3132
1.730,-0.575,3132
1.732,-0.163,3132
1.734,0.268,3132
1.736,0.657,3132
1.738,0.912,3132
1.740,1.040,3132
1.742,1.040,3132
1.744,0.897,3132
1.746,0.613,3111
1.748,0.225,3111
1.750,-0.177,3111
1.752,-0.598,3111
1.754,-1.025,3111
1.756,-1.407,3111
1.758,-1.673,3111
1.760,-1.778,3111
1.762,-1.633,3111
1.764,-1.353,3129
1.766,-0.983,3129
1.768,-0.578,3129
1.770,-0.147,3129
1.772,0.265,3129
1.774,0.635,3129
1.776,0.907,3129
1.778,1.030,3129
1.780,1.030,3129
1.782,0.870,3129
1.784,0.583,3113
1.786,0.212,3113
1.788,-0.195,3113
1.790,-0.613,3113
1.792,-1.035,3113
1.794,-1.407,3113
1.796,-1.663,3113
1.798,-1.792,3113
1.800,-1.577,3113
1.802,-1.340,3119
1.804,-0.973,3119
1.806,-0.575,3119
1.808,-0.163,3119
1.810,0.263,3119
1.812,0.632,3119
1.814,0.892,3119
1.816,1.018,3119
1.818,1.018,3119
1.820,0.863,3119
1.822,0.580,3130
1.824,0.198,3130
1.826,-0.205,3130
1.828,-0.642,3130
1.830,-1.050,3130
1.832,-1.417,3130
1.834,-1.673,3130
1.836,-1.815,3130
1.838,-1.808,3130
1.840,-1.310,3129
1.842,-0.583,3129
1.844,-0.168,3129
1.846,0.270,3129
1.848,0.657,3129
1.850,0.927,3129
1.852,1.062,3129
1.854,1.060,3129
1.856,0.907,3129
1.858,0.613,3129
1.860,0.247,3137
1.862,-0.177,3137
1.864,-0.608,3137
1.866,-1.038,3137
1.868,-1.423,3137
1.870,-1.692,3137
1.872,-1.823,3137
1.874,-1.817,3137
1.876,-1.657,3137
1.878,-1.377,3137
1.880,-0.520,3108
1.882,0.302,3108
1.884,0.620,3108
1.886,0.892,3108
1.888,1.020,3108
1.890,1.015,3108
1.892,0.818,3108
1.894,0.552,3107
1.896,0.217,3107
1.898,-0.190,3107
1.900,-0.618,3107
1.902,-1.048,3107
1.904,-1.417,3107
1.906,-1.688,3107
1.908,-1.815,3107
1.910,-1.817,3107
1.912,-1.657,3107
1.914,-1.377,3107
1.916,-1.002,3120
1.918,-0.583,3120
1.920,0.347,3120
1.922,0.667,3120
1.924,0.897,3120
1.926,1.038,3120
1.928,1.015,3120
1.930,0.885,3120
1.932,0.598,3120
1.934,0.230,3114
1.936,-0.185,3114
1.938,-0.655,3114
1.940,-1.048,3114
1.942,-1.415,3114
1.944,-1.673,3114
1.946,-1.812,3114
1.948,-1.815,3114
1.950,-1.663,3114
1.952,-1.383,3114
1.954,-1.012,3109
1.956,-0.593,3109
1.958,-0.172,3109
1.960,0.677,3109
1.962,0.897,3109
1.964,1.038,3109
1.966,1.048,3109
1.968,0.892,3109
1.970,0.613,3109
1.972,0.237,3102
1.974,-0.180,3102
1.976,-0.593,3102
1.978,-1.048,3102
1.980,-1.413,3102
1.982,-1.673,3102
1.984,-1.810,3102
1.986,-1.802,3102
1.988,-1.647,3102
1.990,-1.367,3102
1.992,-0.993,3128
1.994,-0.580,3128
1.996,-0.170,3128
1.998,0.263,3128
2.000,0.927,3128
2.002,1.028,3128
2.004,1.022,3128
2.006,0.873,3128
2.008,0.593,3128
2.010,0.228,3121
2.012,-0.188,3121
2.014,-0.610,3121
2.016,-1.032,3121
2.018,-1.407,3121
2.020,-1.673,3121
2.022,-1.812,3121
2.024,-1.808,3121
2.026,-1.657,3121
2.028,-1.377,3121
2.030,-1.015,3106
2.032,-0.608,3106
2.034,-0.190,3106
2.036,0.237,3106
2.038,0.613,3106
2.040,1.038,3106
2.042,1.032,3106
2.044,0.890,3106
2.046,0.618,3106
2.048,0.258,3126
2.050,-0.165,3126
2.052,-0.580,3126
2.054,-1.008,3126
2.056,-1.380,3126
2.058,-1.647,3126
2.060,-1.788,3126
2.062,-1.802,3126
2.064,-1.647,3126
2.066,-1.377,3126
2.068,-1.012,3124
2.070,-0.585,3124
2.072,-0.172,3124
2.074,0.263,3124
2.076,0.657,3124
2.078,0.907,3124
2.080,1.048,3124
2.082,0.907,3124
2.084,0.627,3124
2.086,0.258,3121
2.088,-0.170,3121
2.090,-0.593,3121
2.092,-1.030,3121
2.094,-1.420,3121
2.096,-1.698,3121
2.098,-1.843,3121
2.100,-1.843,3121
2.102,-1.688,3121
2.104,-1.413,3121
2.106,-1.028,3128
2.108,-0.605,3128
2.110,-0.180,3128
2.112,0.258,3128
2.114,0.637,3128
2.116,0.917,3128
2.118,1.062,3128
2.120,0.887,3128
2.122,0.627,3128
2.124,0.273,3133
2.126,-0.142,3133
2.128,-0.573,3133
2.130,-1.002,3133
2.132,-1.385,3133
2.134,-1.663,3133
2.136,-1.808,3133
2.138,-1.802,3133
2.140,-1.655,3133
2.142,-1.383,3133
2.144,-1.018,3138
2.146,-0.603,3138
2.148,-0.177,3138
2.150,0.253,3138
2.152,0.627,3138
2.154,0.897,3138
2.156,1.038,3138
2.158,1.038,3138
2.160,0.550,3138
2.162,0.237,3133
2.164,-0.182,3133
2.166,-0.605,3133
2.168,-1.022,3133
2.170,-1.403,3133
2.172,-1.673,3133
2.174,-1.817,3133
2.176,-1.815,3133
2.178,-1.673,3133
2.180,-1.405,3133
2.182,-1.028,3121
2.184,-0.618,3121
2.186,-0.207,3121
2.188,0.233,3121
2.190,0.608,3121
2.192,0.877,3121
2.194,1.020,3121
2.196,1.028,3121
2.198,0.887,3121
2.200,0.180,3138
2.202,-0.583,3138
2.204,-1.010,3138
2.206,-1.385,3138
2.208,-1.660,3138
2.210,-1.790,3138
2.212,-1.808,3138
2.214,-1.653,3138
2.216,-1.380,3138
2.218,-1.010,3132
2.220,-0.598,3132
2.222,-0.172,3132
2.224,0.258,3132
2.226,0.630,3132
2.228,0.900,3132
2.230,1.038,3132
2.232,1.040,3132
2.234,0.892,3132
2.236,0.608,3132
2.238,0.237,3138
2.240,-0.690,3138
2.242,-1.042,3138
2.244,-1.425,3138
2.246,-1.698,3138
2.248,-1.840,3138
2.250,-1.845,3138
2.252,-1.698,3138
2.254,-1.417,3138
2.256,-1.050,3125
2.258,-0.647,3125
2.260,-0.217,3125
2.262,0.220,3125
2.264,0.598,3125
2.266,0.875,3125
2.268,1.022,3125
2.270,1.032,3125
2.272,0.892,3125
2.274,0.615,3125
2.276,0.253,3131
2.278,-0.172,3131
2.280,-1.077,3131
2.282,-1.395,3131
2.284,-1.673,3131
2.286,-1.815,3131
2.288,-1.823,3131
2.290,-1.685,3131
2.292,-1.407,3131
2.294,-1.042,3123
2.296,-0.623,3123
2.298,-0.207,3123
2.300,0.230,3123
2.302,0.608,3123
2.304,0.887,3123
2.306,1.032,3123
2.308,1.048,3123
2.310,0.905,3123
2.312,0.630,3123
2.314,0.263,3119
2.316,-0.172,3119
2.318,-0.578,3119
2.320,-1.458,3119
2.322,-1.670,3119
2.324,-1.817,3119
2.326,-1.785,3119
2.328,-1.673,3119
2.330,-1.393,3119
2.332,-1.020,3127
2.334,-0.608,3127
2.336,-0.182,3127
2.338,0.250,3127
2.340,0.623,3127
2.342,0.907,3127
2.344,1.052,3127
2.346,1.067,3127
2.348,0.917,3127
2.350,0.637,3127
2.352,0.268,3130
2.354,-0.147,3130
2.356,-0.573,3130
2.358,-1.002,3130
2.360,-1.688,3130
2.362,-1.802,3130
2.364,-1.792,3130
2.366,-1.653,3130
2.368,-1.373,3130
2.370,-1.010,3130
2.372,-0.608,3115
2.374,-0.177,3115
2.376,0.247,3115
2.378,0.623,3115
2.380,0.900,3115
2.382,1.038,3115
2.384,1.058,3115
2.386,0.907,3115
2.388,0.630,3115
2.390,0.268,3115
2.392,-0.145,3091
2.394,-0.583,3091
2.396,-1.012,3091
2.398,-1.393,3091
2.400,-1.810,3091
2.402,-1.808,3091
2.404,-1.663,3091
2.406,-1.393,3091
2.408,-1.042,3091
2.410,-0.642,3117
2.412,-0.210,3117
2.414,0.212,3117
2.416,0.593,3117
2.418,0.873,3117
2.420,1.018,3117
2.422,1.032,3117
2.424,0.892,3117
2.426,0.620,3117
2.428,0.263,3117
2.430,-0.163,3103
2.432,-0.575,3103
2.434,-1.008,3103
2.436,-1.380,3103
2.438,-1.657,3103
2.440,-1.792,3103
2.442,-1.663,3103
2.444,-1.403,3103
2.446,-1.028,3103
2.448,-0.623,3099
2.450,-0.193,3099
2.452,0.230,3099
2.454,0.608,3099
2.456,0.887,3099
2.458,1.015,3099
2.460,1.025,3099
2.462,0.892,3099
2.464,0.620,3099
2.466,0.258,3099
2.468,-0.142,3118
2.470,-0.573,3118
2.472,-0.988,3118
2.474,-1.377,3118
2.476,-1.647,3118
2.478,-1.802,3118
2.480,-1.633,3118
2.482,-1.393,3118
2.484,-1.035,3118
2.486,-0.642,3111
2.488,-0.207,3111
2.490,0.223,3111
2.492,0.608,3111
2.494,0.890,3111
2.496,1.038,3111
2.498,1.058,3111
2.500,0.912,3111
2.502,0.637,3111
2.504,0.270,3111
2.506,-0.138,3114
2.508,-0.578,3114
2.510,-1.012,3114
2.512,-1.417,3114
2.514,-1.683,3114
2.516,-1.827,3114
2.518,-1.853,3114
2.520,-1.367,3114
2.522,-1.050,3114
2.524,-0.657,3131
2.526,-0.212,3131
2.528,0.220,3131
2.530,0.598,3131
2.532,0.887,3131
2.534,1.030,3131
2.536,1.058,3131
2.538,0.912,3131
2.540,0.637,3131
2.542,0.285,3131
2.544,-0.125,3110
2.546,-0.573,3110
2.548,-1.002,3110
2.550,-1.393,3110
2.552,-1.670,3110
2.554,-1.820,3110
2.556,-1.843,3110
2.558,-1.702,3110
2.560,-1.015,3110
2.562,-0.672,3110
2.564,-0.233,3110
2.566,0.195,3110
2.568,0.583,3110
2.570,0.863,3110
2.572,1.018,3110
2.574,1.028,3110
2.576,0.877,3110
2.578,0.613,3110
2.580,0.253,3110
2.582,-0.165,3126
2.584,-0.603,3126
2.586,-1.018,3126
2.588,-1.407,3126
2.590,-1.688,3126
2.592,-1.827,3126
2.594,-1.843,3126
2.596,-1.692,3126
2.598,-1.417,3126
2.600,-0.578,3126
2.602,0.278,3126
2.604,0.623,3126
2.606,0.905,3126
2.608,1.052,3126
2.610,1.067,3126
2.612,0.917,3126
2.614,0.657,3126
2.616,0.287,3126
2.618,-0.128,3111
2.620,-0.573,3111
2.622,-0.993,3111
2.624,-1.380,3111
2.626,-1.663,3111
2.628,-1.810,3111
2.630,-1.823,3111
2.632,-1.688,3111
2.634,-1.417,3111
2.636,-1.055,3111
2.638,-0.650,3142
2.640,0.273,3142
2.642,0.637,3142
2.644,0.868,3142
2.646,1.008,3142
2.648,1.018,3142
2.650,0.887,3142
2.652,0.618,3142
2.654,0.260,3142
2.656,-0.160,3134
2.658,-0.603,3134
2.660,-1.022,3134
2.662,-1.407,3134
2.664,-1.688,3134
2.666,-1.833,3134
2.668,-1.847,3134
2.670,-1.705,3134
2.672,-1.445,3134
2.674,-1.070,3134
2.676,-0.665,3139
2.678,-0.228,3139
2.680,0.637,3139
2.682,0.870,3139
2.684,1.028,3139
2.686,1.038,3139
2.688,0.900,3139
2.690,0.632,3139
2.692,0.273,3139
2.694,-0.122,3136
2.696,-0.568,3136
2.698,-0.988,3136
2.700,-1.373,3136
2.702,-1.647,3136
2.704,-1.802,3136
2.706,-1.808,3136
2.708,-1.663,3136
2.710,-1.387,3136
2.712,-1.018,3136
2.714,-0.613,3138
2.716,-0.172,3138
2.718,0.250,3138
2.720,0.940,3138
2.722,1.058,3138
2.724,1.062,3138
2.726,0.912,3138
2.728,0.632,3138
2.730,0.263,3138
2.732,-0.163,3134
2.734,-0.598,3134
2.736,-1.028,3134
2.738,-1.413,3134
2.740,-1.690,3134
2.742,-1.827,3134
2.744,-1.845,3134
2.746,-1.702,3134
2.748,-1.425,3134
2.750,-1.055,3134
2.752,-0.652,3129
2.754,-0.217,3129
2.756,0.212,3129
2.758,0.598,3129
2.760,1.038,3129
2.762,1.048,3129
2.764,0.902,3129
2.766,0.630,3129
2.768,0.278,3129
2.770,-0.133,3126
2.772,-0.588,3126
2.774,-1.012,3126
2.776,-1.407,3126
2.778,-1.692,3126
2.780,-1.850,3126
2.782,-1.867,3126
2.784,-1.738,3126
2.786,-1.480,3126
2.788,-1.100,3126
2.790,-0.688,3117
2.792,-0.247,3117
2.794,0.195,3117
2.796,0.588,3117
2.798,0.892,3117
2.800,1.058,3117
2.802,0.935,3117
2.804,0.667,3117
2.806,0.302,3117
2.808,-0.107,3114
2.810,-0.568,3114
2.812,-0.993,3114
2.814,-1.383,3114
2.816,-1.663,3114
2.818,-1.815,3114
2.820,-1.830,3114
2.822,-1.698,3114
2.824,-1.423,3114
2.826,-1.058,3114
2.828,-0.662,3114
2.830,-0.228,3114
2.832,0.207,3114
2.834,0.588,3114
2.836,0.887,3114
2.838,1.038,3114
2.840,0.897,3114
2.842,0.670,3114
2.844,0.312,3114
2.846,-0.087,3133
2.848,-0.535,3133
2.850,-0.963,3133
2.852,-1.340,3133
2.854,-1.643,3133
2.856,-1.792,3133
2.858,-1.820,3133
2.860,-1.690,3133
2.862,-1.442,3133
2.864,-1.062,3133
2.866,-0.665,3133
2.868,-0.247,3113
2.870,0.205,3113
2.872,0.588,3113
2.874,0.868,3113
2.876,1.032,3113
2.878,1.050,3113
2.880,0.598,3113
2.882,0.228,3113
2.884,-0.282,3110
2.886,-1.010,3110
2.888,-1.370,3110
2.890,-1.647,3110
2.892,-1.802,3110
2.894,-1.815,3110
2.896,-1.650,3110
2.898,-1.413,3110
2.900,-1.048,3110
2.902,-0.647,3110
2.904,-0.217,3114
2.906,0.223,3114
2.908,0.590,3114
2.910,0.868,3114
2.912,1.020,3114
2.914,1.038,3114
2.916,0.897,3114
2.918,0.635,3114
2.920,-0.200,3105
2.922,-0.993,3105
2.924,-1.383,3105
2.926,-1.673,3105
2.928,-1.820,3105
2.930,-1.845,3105
2.932,-1.708,3105
2.934,-1.448,3105
2.936,-1.073,3105
2.938,-0.662,3105
2.940,-0.240,3125
2.942,0.207,3125
2.944,0.583,3125
2.946,0.868,3125
2.948,1.015,3125
2.950,1.032,3125
2.952,0.900,3125
2.954,0.627,3125
2.956,0.268,3125
2.958,-0.142,3125
2.960,-1.062,3108
2.962,-1.725,3108
2.964,-1.827,3108
2.966,-1.843,3108
2.968,-1.702,3108
2.970,-1.452,3108
2.972,-1.087,3108
2.974,-0.688,3108
2.976,-0.253,3106
2.978,0.190,3106
2.980,0.578,3106
2.982,0.865,3106
2.984,1.025,3106
2.986,1.048,3106
2.988,0.927,3106
2.990,0.667,3106
2.992,0.305,3106
2.994,-0.100,3106
2.996,-0.527,3124
2.998,-0.973,3124
3.000,-1.683,3124
3.002,-1.802,3124
3.004,-1.817,3124
3.006,-1.683,3124
3.008,-1.417,3124
3.010,-1.058,3124
3.012,-0.657,3124
3.014,-0.223,3098
3.016,0.212,3098
3.018,0.588,3098
3.020,0.882,3098
3.022,1.032,3098
3.024,1.058,3098
3.026,0.917,3098
3.028,0.665,3098
3.030,0.300,3098
3.032,-0.105,3098
3.034,-0.542,3115
3.036,-0.983,3115
3.038,-1.365,3115
3.040,-1.810,3115
3.042,-1.810,3115
3.044,-1.675,3115
3.046,-1.413,3115
3.048,-1.058,3115
3.050,-0.657,3115
3.052,-0.225,3120
3.054,0.220,3120
3.056,0.608,3120
3.058,0.892,3120
3.060,1.052,3120
3.062,1.073,3120
3.064,0.938,3120
3.066,0.667,3120
3.068,0.297,3120
3.070,-0.110,3120
3.072,-0.545,3121
3.074,-0.985,3121
3.076,-1.367,3121
3.078,-1.650,3121
3.080,-1.812,3121
3.082,-1.702,3121
3.084,-1.452,3121
3.086,-1.087,3121
3.088,-0.665,3121
3.090,-0.253,3118
3.092,0.198,3118
3.094,0.588,3118
3.096,0.885,3118
3.098,1.048,3118
3.100,1.073,3118
3.102,0.953,3118
3.104,0.700,3118
3.106,0.343,3118
3.108,-0.068,3118
3.110,-0.507,3130
3.112,-0.945,3130
3.114,-1.343,3130
3.116,-1.640,3130
3.118,-1.808,3130
3.120,-1.663,3130
3.122,-1.442,3130
3.124,-1.073,3130
3.126,-0.665,3130
3.128,-0.233,3155
3.130,0.212,3155
3.132,0.593,3155
3.134,0.887,3155
3.136,1.040,3155
3.138,1.065,3155
3.140,0.932,3155
3.142,0.672,3155
3.144,0.302,3155
3.146,-0.102,3155
3.148,-0.532,3119
3.150,-0.978,3119
3.152,-1.370,3119
3.154,-1.653,3119
3.156,-1.817,3119
3.158,-1.847,3119
3.160,-1.407,3119
3.162,-1.100,3119
3.164,-0.690,3119
3.166,-0.263,3145
3.168,0.182,3145
3.170,0.575,3145
3.172,0.868,3145
3.174,1.032,3145
3.176,1.067,3145
3.178,0.940,3145
3.180,0.677,3145
3.182,0.333,3145
3.184,-0.087,3145
3.186,-0.522,3120
3.188,-0.948,3120
3.190,-1.337,3120
3.192,-1.623,3120
3.194,-1.782,3120
3.196,-1.808,3120
3.198,-1.673,3120
3.200,-1.000,3120
3.202,-0.657,3120
3.204,-0.223,3133
3.206,0.212,3133
3.208,0.588,3133
3.210,0.873,3133
3.212,1.032,3133
3.214,1.058,3133
3.216,0.925,3133
3.218,0.665,3133
3.220,0.307,3133
3.222,-0.092,3133
3.224,-0.520,3117
3.226,-0.948,3117
3.228,-1.333,3117
3.230,-1.620,3117
3.232,-1.778,3117
3.234,-1.792,3117
3.236,-1.667,3117
3.238,-1.413,3117
3.240,-0.585,3117
3.242,-0.223,3120
3.244,0.212,3120
3.246,0.595,3120
3.248,0.887,3120
3.250,1.052,3120
3.252,1.077,3120
3.254,0.975,3120
3.256,0.718,3120
3.258,0.370,3120
3.260,-0.052,3120
3.262,-0.492,3120
3.264,-0.938,3120
3.266,-1.330,3120
3.268,-1.633,3120
3.270,-1.800,3120
3.272,-1.827,3120
3.274,-1.702,3120
3.276,-1.455,3120
3.278,-1.087,3120
3.280,0.287,3108
3.282,0.897,3108
3.284,1.073,3108
3.286,0.948,3108
3.288,0.698,3108
3.290,0.350,3108
3.292,-0.060,3108
3.294,-0.492,3130
3.296,-0.938,3130
3.298,-1.333,3130
3.300,-1.625,3130
3.302,-1.792,3130
3.304,-1.833,3130
3.306,-1.712,3130
3.308,-1.472,3130
3.310,-1.110,3130
3.312,-0.728,3130
3.314,-0.290,3105
3.316,0.142,3105
3.318,0.532,3105
3.320,1.010,3105
3.322,1.022,3105
3.324,0.902,3105
3.326,0.652,3105
3.328,0.117,3105
3.330,-0.713,3113
3.332,-1.367,3113
3.334,-1.647,3113
3.336,-1.808,3113
3.338,-1.830,3113
3.340,-1.710,3113
3.342,-1.465,3113
3.344,-1.103,3113
3.346,-0.695,3113
3.348,0.455,3116
3.350,0.897,3116
3.352,1.035,3116
3.354,1.070,3116
3.356,0.950,3116
3.358,0.708,3116
3.360,-0.113,3116
3.362,-0.482,3116
3.364,-0.915,3121
3.366,-1.663,3121
3.368,-1.800,3121
3.370,-1.827,3121
3.372,-1.708,3121
3.374,-1.465,3121
3.376,-1.105,3121
3.378,-0.705,3121
3.380,-0.287,3121
3.382,0.145,3130
3.384,0.542,3130
3.386,1.022,3130
3.388,0.660,3130
3.390,0.338,3130
3.392,-0.072,3130
3.394,-0.507,3130
3.396,-0.932,3115
3.398,-1.335,3115
3.400,-1.802,3115
3.402,-1.820,3115
3.404,-1.327,3127
3.406,-0.863,3139
3.408,-0.018,3121
3.410,0.557,3113
3.412,0.958,3113
3.414,1.067,3113
3.416,1.028,3147
3.418,0.838,3147
3.420,0.542,3147
3.422,0.152,3147
3.424,-0.258,3147
3.426,-0.685,3147
3.428,-1.107,3147
3.430,-1.480,3147
3.432,-1.702,3147
3.434,-1.810,3147
3.436,-1.778,3148
3.438,-1.605,3148
3.440,-0.853,3148
3.442,-0.507,3148
3.444,-0.068,3148
3.446,0.365,3148
3.448,0.730,3148
3.450,0.978,3148
3.452,1.087,3148
3.454,1.058,3104
3.456,0.868,3104
3.458,0.568,3104
3.460,0.172,3104
3.462,-0.258,3104
3.464,-0.708,3104
3.466,-1.135,3104
3.468,-1.502,3104
3.470,-1.738,3104
3.472,-1.847,3104
3.474,-1.815,3105
3.476,-1.630,3105
3.478,-1.337,3105
3.480,-0.487,3105
3.482,-0.022,3105
3.484,0.338,3105
3.486,0.677,3105
3.488,0.917,3105
3.490,1.048,3105
3.492,1.020,3105
3.494,0.828,3105
3.496,0.532,3105
3.498,0.172,3105
3.500,-0.247,3105
3.502,-0.682,3105
3.504,-1.093,3105
3.506,-1.458,3105
3.508,-1.698,3105
3.510,-1.808,3105
3.512,-1.782,3105
3.514,-1.613,3119
3.516,-1.312,3119
3.518,-0.927,3119
3.520,-0.013,3119
3.522,0.347,3119
3.524,0.700,3119
3.526,0.932,3119
3.528,1.055,3119
3.530,1.025,3119
3.532,0.848,3119
3.534,0.547,3119
3.536,0.177,3119
3.538,-0.247,3119
3.540,-0.695,3119
3.542,-1.123,3119
3.544,-1.488,3119
3.546,-1.728,3119
3.548,-1.845,3119
3.550,-1.812,3119
3.552,-1.640,3134
3.554,-1.327,3134
3.556,-0.935,3134
3.558,-0.525,3134
3.560,0.407,3134
3.562,0.705,3134
3.564,0.950,3134
3.566,1.073,3134
3.568,1.048,3134
3.570,0.865,3067
3.572,0.547,3067
3.574,0.182,3067
3.576,-0.253,3067
3.578,-0.695,3067
3.580,-1.110,3067
3.582,-1.488,3067
3.584,-1.708,3067
3.586,-1.817,3067
3.588,-1.788,3067
3.590,-1.607,3119
3.592,-1.292,3119
3.594,-0.907,3119
3.596,-0.492,3119
3.598,-0.052,3119
3.600,0.770,3119
3.602,1.005,3119
3.604,1.077,3119
3.606,1.040,3119
3.608,0.863,3115
3.610,0.542,3115
3.612,0.172,3115
3.614,-0.247,3115
3.616,-0.690,3115
3.618,-1.110,3115
3.620,-1.482,3115
3.622,-1.728,3115
3.624,-1.833,3115
3.626,-1.812,3115
3.628,-1.627,3102
3.630,-1.325,3102
3.632,-0.925,3102
3.634,-0.512,3102
3.636,-0.068,3102
3.638,0.367,3102
3.640,1.012,3102
3.642,1.090,3102
3.644,1.058,3102
3.646,0.873,3115
3.648,0.568,3115
3.650,0.193,3115
3.652,-0.217,3115
3.654,-0.657,3115
3.656,-1.085,3115
3.658,-1.458,3115
3.660,-1.690,3115
3.662,-1.805,3115
3.664,-1.778,3115
3.666,-1.603,3119
3.668,-1.288,3119
3.670,-0.897,3119
3.672,-0.487,3119
3.674,-0.055,3119
3.676,0.398,3119
3.678,0.733,3119
3.680,1.067,3119
3.682,1.028,3119
3.684,0.858,3124
3.686,0.540,3124
3.688,0.130,3124
3.690,-0.350,3124
3.692,-0.713,3124
3.694,-1.133,3124
3.696,-1.502,3124
3.698,-1.735,3124
3.700,-1.847,3124
3.702,-1.812,3124
3.704,-1.633,3106
3.706,-1.330,3106
3.708,-0.943,3106
3.710,-0.532,3106
3.712,-0.098,3106
3.714,0.340,3106
3.716,0.703,3106
3.718,0.953,3106
3.720,1.028,3106
3.722,0.868,3105
3.724,0.550,3105
3.726,0.182,3105
3.728,-0.242,3105
3.730,-0.682,3105
3.732,-1.103,3105
3.734,-1.468,3105
3.736,-1.710,3105
3.738,-1.827,3105
3.740,-1.802,3105
3.742,-1.625,3099
3.744,-1.323,3099
3.746,-0.938,3099
3.748,-0.527,3099
3.750,-0.092,3099
3.752,0.350,3099
3.754,0.713,3099
3.756,0.958,3099
3.758,1.077,3099
3.760,0.855,3139
3.762,0.185,3139
3.764,-0.217,3139
3.766,-0.657,3139
3.768,-1.087,3139
3.770,-1.462,3139
3.772,-1.732,3139
3.774,-1.823,3139
3.776,-1.800,3139
3.778,-1.620,3126
3.780,-1.323,3126
3.782,-0.932,3126
3.784,-0.522,3126
3.786,-0.083,3126
3.788,0.352,3126
3.790,0.718,3126
3.792,0.978,3126
3.794,1.087,3126
3.796,1.058,3126
3.798,0.877,3137
3.800,0.128,3137
3.802,-0.228,3137
3.804,-0.672,3137
3.806,-1.103,3137
3.808,-1.485,3137
3.810,-1.732,3137
3.812,-1.847,3137
3.814,-1.823,3137
3.816,-1.653,3136
3.818,-1.337,3136
3.820,-0.943,3136
3.822,-0.527,3136
3.824,-0.090,3136
3.826,0.350,3136
3.828,0.708,3136
3.830,0.958,3136
3.832,1.073,3136
3.834,1.048,3136
3.836,0.882,3124
3.838,0.573,3124
3.840,-0.287,3124
3.842,-0.657,3124
3.844,-1.075,3124
3.846,-1.448,3124
3.848,-1.692,3124
3.850,-1.812,3124
3.852,-1.788,3124
3.854,-1.620,3128
3.856,-1.333,3128
3.858,-0.948,3128
3.860,-0.542,3128
3.862,-0.102,3128
3.864,0.330,3128
3.866,0.698,3128
3.868,0.978,3128
3.870,1.077,3128
3.872,1.058,3128
3.874,0.895,3120
3.876,0.585,3120
3.878,0.217,3120
3.880,-0.705,3120
3.882,-1.103,3120
3.884,-1.458,3120
3.886,-1.692,3120
3.888,-1.808,3120
3.890,-1.788,3120
3.892,-1.623,3125
3.894,-1.337,3125
3.896,-0.968,3125
3.898,-0.562,3125
3.900,-0.130,3125
3.902,0.297,3125
3.904,0.660,3125
3.906,0.902,3125
3.908,1.022,3125
3.910,0.998,3125
3.912,0.833,3123
3.914,0.532,3123
3.916,0.152,3123
3.918,-0.242,3123
3.920,-1.163,3123
3.922,-1.462,3123
3.924,-1.702,3123
3.926,-1.823,3123
3.928,-1.810,3123
3.930,-1.633,3144
3.932,-1.343,3144
3.934,-0.973,3144
3.936,-0.562,3144
3.938,-0.128,3144
3.940,0.302,3144
3.942,0.670,3144
3.944,0.920,3144
3.946,1.052,3144
3.948,1.028,3144
3.950,0.858,3132
3.952,0.550,3132
3.954,0.185,3132
3.956,-0.220,3132
3.958,-0.652,3132
3.960,-1.500,3132
3.962,-1.692,3132
3.964,-1.812,3132
3.966,-1.792,3132
3.968,-1.633,3122
3.970,-1.340,3122
3.972,-0.975,3122
3.974,-0.562,3122
3.976,-0.135,3122
3.978,0.292,3122
3.980,0.657,3122
3.982,0.902,3122
3.984,1.020,3122
3.986,1.008,3122
3.988,0.848,3119
3.990,0.542,3119
3.992,0.172,3119
3.994,-0.245,3119
3.996,-0.682,3119
3.998,-1.087,3119
4.000,-1.742,3119
4.002,-1.782,3119
4.004,-1.607,3117
4.006,-1.323,3117
4.008,-0.963,3117
4.010,-0.542,3117
4.012,-0.113,3117
4.014,0.300,3117
4.016,0.672,3117
4.018,0.932,3117
4.020,1.062,3117
4.022,1.055,3117
4.024,0.892,3117
4.026,0.595,3121
4.028,0.223,3121
4.030,-0.190,3121
4.032,-0.642,3121
4.034,-1.067,3121
4.036,-1.448,3121
4.038,-1.700,3121
4.040,-1.808,3121
4.042,-1.643,3106
4.044,-0.938,3106
4.046,-0.532,3106
4.048,-0.100,3106
4.050,0.275,3106
4.052,0.635,3106
4.054,0.897,3106
4.056,1.025,3106
4.058,1.012,3106
4.060,0.848,3106
4.062,0.542,3136
4.064,0.175,3136
4.066,-0.230,3136
4.068,-0.652,3136
4.070,-1.073,3136
4.072,-1.460,3136
4.074,-1.690,3136
4.076,-1.808,3136
4.078,-1.780,3136
4.080,-1.250,3125
4.082,-0.527,3125
4.084,-0.100,3125
4.086,0.312,3125
4.088,0.698,3125
4.090,0.938,3125
4.092,1.060,3125
4.094,1.038,3125
4.096,0.868,3125
4.098,0.578,3109
4.100,0.193,3109
4.102,-0.223,3109
4.104,-0.665,3109
4.106,-1.093,3109
4.108,-1.472,3109
4.110,-1.722,3109
4.112,-1.847,3109
4.114,-1.823,3109
4.116,-1.655,3109
4.118,-1.363,3114
4.120,-0.497,3114
4.122,-0.130,3114
4.124,0.292,3114
4.126,0.667,3114
4.128,0.915,3114
4.130,1.032,3114
4.132,1.020,3114
4.134,0.858,3114
4.136,0.557,3108
4.138,0.177,3108
4.140,-0.240,3108
4.142,-0.662,3108
4.144,-1.093,3108
4.146,-1.462,3108
4.148,-1.708,3108
4.150,-1.825,3108
4.152,-1.805,3108
4.154,-1.643,3108
4.156,-1.340,3113
4.158,-0.963,3113
4.160,-0.060,3113
4.162,0.292,3113
4.164,0.665,3113
4.166,0.912,3113
4.168,1.040,3113
4.170,1.032,3113
4.172,0.870,3113
4.174,0.588,3121
4.176,0.217,3121
4.178,-0.185,3121
4.180,-0.618,3121
4.182,-1.048,3121
4.184,-1.415,3121
4.186,-1.673,3121
4.188,-1.812,3121
4.190,-1.808,3121
4.192,-1.647,3121
4.194,-1.363,3112
4.196,-0.973,3112
4.198,-0.568,3112
4.200,0.367,3112
4.202,0.715,3112
4.204,0.930,3112
4.206,1.048,3112
4.208,1.022,3112
4.210,0.865,3112
4.212,0.575,3123
4.214,0.193,3123
4.216,-0.212,3123
4.218,-0.652,3123
4.220,-1.073,3123
4.222,-1.460,3123
4.224,-1.712,3123
4.226,-1.847,3123
4.228,-1.845,3123
4.230,-1.688,3123
4.232,-1.393,3133
4.234,-1.012,3133
4.236,-0.603,3133
4.238,-0.172,3133
4.240,0.688,3133
4.242,0.910,3133
4.244,1.018,3133
4.246,0.998,3133
4.248,0.860,3133
4.250,0.580,3134
4.252,0.190,3134
4.254,-0.190,3134
4.256,-0.608,3134
4.258,-1.032,3134
4.260,-1.407,3134
4.262,-1.673,3134
4.264,-1.812,3134
4.266,-1.792,3134
4.268,-1.633,3134
4.270,-1.343,3131
4.272,-0.968,3131
4.274,-0.550,3131
4.276,-0.113,3131
4.278,0.307,3131
4.280,0.958,3131
4.282,1.065,3131
4.284,1.048,3131
4.286,0.877,3131
4.288,0.588,3134
4.290,0.205,3134
4.292,-0.207,3134
4.294,-0.623,3134
4.296,-1.048,3134
4.298,-1.423,3134
4.300,-1.688,3134
4.302,-1.812,3134
4.304,-1.802,3134
4.306,-1.645,3134
4.308,-1.347,3128
4.310,-0.973,3128
4.312,-0.562,3128
4.314,-0.128,3128
4.316,0.300,3128
4.318,0.672,3128
4.320,1.055,3128
4.322,1.022,3128
4.324,0.860,3128
4.326,0.588,3142
4.328,0.198,3142
4.330,-0.210,3142
4.332,-0.652,3142
4.334,-1.083,3142
4.336,-1.460,3142
4.338,-1.722,3142
4.340,-1.853,3142
4.342,-1.843,3142
4.344,-1.677,3142
4.346,-1.387,3124
4.348,-1.002,3124
4.350,-0.588,3124
4.352,-0.163,3124
4.354,0.278,3124
4.356,0.660,3124
4.358,0.915,3124
4.360,1.028,3124
4.362,0.890,3124
4.364,0.517,3132
4.366,-0.217,3132
4.368,-0.647,3132
4.370,-1.062,3132
4.372,-1.427,3132
4.374,-1.692,3132
4.376,-1.827,3132
4.378,-1.810,3132
4.380,-1.653,3132
4.382,-1.373,3134
4.384,-1.002,3134
4.386,-0.598,3134
4.388,-0.172,3134
4.390,0.263,3134
4.392,0.630,3134
4.394,0.895,3134
4.396,1.028,3134
4.398,1.028,3134
4.400,0.507,3128
4.402,-0.233,3128
4.404,-0.728,3128
4.406,-1.062,3128
4.408,-1.450,3128
4.410,-1.708,3128
4.412,-1.843,3128
4.414,-1.830,3128
4.416,-1.657,3128
4.418,-1.377,3131
4.420,-1.002,3131
4.422,-0.588,3131
4.424,-0.165,3131
4.426,0.268,3131
4.428,0.637,3131
4.430,0.902,3131
4.432,1.032,3131
4.434,1.030,3131
4.436,0.875,3131
4.438,0.598,3126
4.440,-0.263,3126
4.442,-0.608,3126
4.444,-1.060,3126
4.446,-1.413,3126
4.448,-1.665,3126
4.450,-1.792,3126
4.452,-1.795,3126
4.454,-1.640,3126
4.456,-1.347,3123
4.458,-0.985,3123
4.460,-0.580,3123
4.462,-0.147,3123
4.464,0.275,3123
4.466,0.655,3123
4.468,0.907,3123
4.470,1.048,3123
4.472,1.032,3123
4.474,0.887,3123
4.476,0.598,3128
4.478,0.223,3128
4.480,-0.693,3128
4.482,-1.452,3128
4.484,-1.698,3128
4.486,-1.827,3128
4.488,-1.827,3128
4.490,-1.667,3128
4.492,-1.387,3118
4.494,-1.018,3118
4.496,-0.613,3118
4.498,-0.193,3118
4.500,0.237,3118
4.502,0.618,3118
4.504,0.892,3118
4.506,1.028,3118
4.508,1.032,3118
4.510,0.897,3118
4.512,0.623,3129
4.514,0.253,3129
4.516,-0.163,3129
4.518,-0.583,3129
4.520,-1.452,3129
4.522,-1.692,3129
4.524,-1.792,3129
4.526,-1.785,3129
4.528,-1.627,3129
4.530,-1.353,3129
4.532,-0.990,3114
4.534,-0.573,3114
4.536,-0.163,3114
4.538,0.265,3114
4.540,0.637,3114
4.542,0.907,3114
4.544,1.052,3114
4.546,1.052,3114
4.548,0.897,3114
4.550,0.620,3114
4.552,0.253,3114
4.554,-0.170,3114
4.556,-0.605,3114
4.558,-1.045,3114
4.560,-1.708,3114
4.562,-1.812,3114
4.564,-1.812,3114
4.566,-1.657,3114
4.568,-1.383,3114
4.570,-1.008,3121
4.572,-0.590,3121
4.574,-0.177,3121
4.576,0.253,3121
4.578,0.620,3121
4.580,0.892,3121
4.582,1.028,3121
4.584,1.032,3121
4.586,0.892,3121
4.588,0.605,3121
4.590,0.247,3096
4.592,-0.180,3096
4.594,-0.613,3096
4.596,-1.035,3096
4.598,-1.423,3096
4.600,-1.840,3096
4.602,-1.823,3096
4.604,-1.670,3096
4.606,-1.390,3096
4.608,-1.020,3116
4.610,-0.593,3116
4.612,-0.172,3116
4.614,0.263,3116
4.616,0.632,3116
4.618,0.907,3116
4.620,1.048,3116
4.622,1.048,3116
4.624,0.892,3116
4.626,0.613,3116
4.628,0.250,3114
4.630,-0.163,3114
4.632,-0.583,3114
4.634,-1.010,3114
4.636,-1.387,3114
4.638,-1.663,3114
4.640,-1.792,3114
4.642,-1.615,3114
4.644,-1.375,3114
4.646,-1.008,3106
4.648,-0.562,3106
4.650,-0.182,3106
4.652,0.247,3106
4.654,0.618,3106
4.656,0.885,3106
4.658,1.018,3106
4.660,1.028,3106
4.662,0.873,3106
4.664,0.593,3106
4.666,0.237,3099
4.668,-0.182,3099
4.670,-0.595,3099
4.672,-1.022,3099
4.674,-1.407,3099
4.676,-1.665,3099
4.678,-1.812,3099
4.680,-1.633,3099
4.682,-1.405,3099
4.684,-1.038,3108
4.686,-0.623,3108
4.688,-0.207,3108
4.690,0.223,3108
4.692,0.608,3108
4.694,0.882,3108
4.696,1.030,3108
4.698,1.040,3108
4.700,0.902,3108
4.702,0.627,3108
4.704,0.263,3114
4.706,-0.147,3114
4.708,-0.573,3114
4.710,-1.008,3114
4.712,-1.383,3114
4.714,-1.657,3114
4.716,-1.788,3114
4.718,-1.792,3114
4.720,-1.327,3127
4.722,-0.578,3127
4.724,-0.190,3127
4.726,0.278,3127
4.728,0.623,3127
4.730,0.902,3127
4.732,1.058,3127
4.734,1.062,3127
4.736,0.927,3127
4.738,0.652,3127
4.740,0.278,3142
4.742,-0.133,3142
4.744,-0.562,3142
4.746,-0.993,3142
4.748,-1.377,3142
4.750,-1.657,3142
4.752,-1.802,3142
4.754,-1.812,3142
4.756,-1.667,3142
4.758,-1.403,3142
4.760,-0.570,3121
4.762,0.220,3121
4.764,0.593,3121
4.766,0.873,3121
4.768,1.020,3121
4.770,1.038,3121
4.772,0.902,3121
4.774,0.630,3121
4.776,0.278,3139
4.778,-0.130,3139
4.780,-0.552,3139
4.782,-0.983,3139
4.784,-1.373,3139
4.786,-1.650,3139
4.788,-1.802,3139
4.790,-1.812,3139
4.792,-1.673,3139
4.794,-1.413,3139
4.796,-1.048,3135
4.798,-0.642,3135
4.800,0.275,3135
4.802,0.618,3135
4.804,0.895,3135
4.806,1.032,3135
4.808,1.048,3135
4.810,0.900,3135
4.812,0.627,3135
4.814,0.263,3124
4.816,-0.163,3124
4.818,-0.588,3124
4.820,-1.018,3124
4.822,-1.395,3124
4.824,-1.673,3124
4.826,-1.823,3124
4.828,-1.823,3124
4.830,-1.673,3124
4.832,-1.420,3124
4.834,-1.058,3145
4.836,-0.652,3145
4.838,-0.220,3145
4.840,0.655,3145
4.842,0.877,3145
4.844,1.022,3145
4.846,1.038,3145
4.848,0.902,3145
4.850,0.627,3145
4.852,0.265,3127
4.854,-0.142,3127
4.856,-0.580,3127
4.858,-1.010,3127
4.860,-1.387,3127
4.862,-1.663,3127
4.864,-1.810,3127
4.866,-1.812,3127
4.868,-1.667,3127
4.870,-1.395,3127
4.872,-1.032,3131
4.874,-0.627,3131
4.876,-0.215,3131
4.878,0.228,3131
4.880,0.912,3131
4.882,1.022,3131
4.884,1.028,3131
4.886,0.887,3131
4.888,0.610,3131
4.890,0.258,3125
4.892,-0.168,3125
4.894,-0.583,3125
4.896,-1.012,3125
4.898,-1.383,3125
4.900,-1.660,3125
4.902,-1.805,3125
4.904,-1.812,3125
4.906,-1.663,3125
4.908,-1.387,3125
4.910,-1.018,3135
4.912,-0.603,3135
4.914,-0.182,3135
4.916,0.247,3135
4.918,0.625,3135
4.920,1.058,3135
4.922,1.038,3135
4.924,0.902,3135
4.926,0.637,3135
4.928,0.290,3133
4.930,-0.117,3133
4.932,-0.550,3133
4.934,-0.988,3133
4.936,-1.377,3133
4.938,-1.657,3133
4.940,-1.808,3133
4.942,-1.820,3133
4.944,-1.688,3133
4.946,-1.413,3133
4.948,-1.050,3141
4.950,-0.650,3141
4.952,-0.217,3141
4.954,0.223,3141
4.956,0.610,3141
4.958,0.892,3141
4.960,1.028,3141
4.962,0.868,3141
4.964,0.627,3141
4.966,0.217,3104
4.968,-0.603,3104
4.970,-1.018,3104
4.972,-1.405,3104
4.974,-1.683,3104
4.976,-1.820,3104
4.978,-1.825,3104
4.980,-1.683,3104
4.982,-1.403,3104
4.984,-1.030,3123
4.986,-0.618,3123
4.988,-0.203,3123
4.990,0.233,3123
4.992,0.618,3123
4.994,0.900,3123
4.996,1.048,3123
4.998,1.058,3123
5.000,0.583,3123
5.002,0.212,3119
5.004,-0.625,3119
5.006,-1.012,3119
5.008,-1.390,3119
5.010,-1.657,3119
5.012,-1.802,3119
5.014,-1.812,3119
5.016,-1.677,3119
5.018,-1.407,3119
5.020,-1.025,3123
5.022,-0.647,3123
5.024,-0.220,3123
5.026,0.220,3123
5.028,0.608,3123
5.030,0.892,3123
5.032,1.048,3123
5.034,1.062,3123
5.036,0.917,3123
5.038,0.667,3123
5.040,-0.180,3116
5.042,-0.983,3116
5.044,-1.377,3116
5.046,-1.663,3116
5.048,-1.810,3116
5.050,-1.840,3116
5.052,-1.695,3116
5.054,-1.423,3116
5.056,-1.058,3116
5.058,-0.657,3114
5.060,-0.223,3114
5.062,0.207,3114
5.064,0.593,3114
5.066,0.873,3114
5.068,1.028,3114
5.070,1.052,3114
5.072,0.917,3114
5.074,0.657,3114
5.076,0.292,3114
5.078,-0.113,3106
5.080,-1.042,3106
5.082,-1.367,3106
5.084,-1.653,3106
5.086,-1.802,3106
5.088,-1.817,3106
5.090,-1.692,3106
5.092,-1.427,3106
5.094,-1.073,3106
5.096,-0.670,3110
5.098,-0.230,3110
5.100,0.193,3110
5.102,0.570,3110
5.104,0.848,3110
5.106,1.005,3110
5.108,1.020,3110
5.110,0.897,3110
5.112,0.652,3110
5.114,0.297,3110
5.116,-0.098,3100
5.118,-0.527,3100
5.120,-1.383,3100
5.122,-1.688,3100
5.124,-1.772,3100
5.126,-1.782,3100
5.128,-1.653,3100
5.130,-1.385,3100
5.132,-1.032,3100
5.134,-0.647,3101
5.136,-0.215,3101
5.138,0.215,3101
5.140,0.593,3101
5.142,0.868,3101
5.144,1.022,3101
5.146,1.048,3101
5.148,0.907,3101
5.150,0.637,3101
5.152,0.273,3101
5.154,-0.128,3107
5.156,-0.562,3107
5.158,-0.993,3107
5.160,-1.690,3107
5.162,-1.808,3107
5.164,-1.812,3107
5.166,-1.667,3107
5.168,-1.407,3107
5.170,-1.045,3107
5.172,-0.627,3107
5.174,-0.193,3107
5.176,0.228,3107
5.178,0.613,3107
5.180,0.902,3107
5.182,1.058,3107
5.184,1.073,3107
5.186,0.938,3107
5.188,0.677,3107
5.190,0.300,3107
5.192,-0.102,3130
5.194,-0.545,3130
5.196,-0.978,3130
5.198,-1.373,3130
5.200,-1.823,3130
5.202,-1.812,3130
5.204,-1.698,3130
5.206,-1.445,3130
5.208,-1.067,3130
5.210,-0.657,3112
5.212,-0.188,3112
5.214,0.230,3112
5.216,0.632,3112
5.218,0.930,3112
5.220,1.085,3112
5.222,1.103,3112
5.224,0.953,3112
5.226,0.693,3112
5.228,0.315,3112
5.230,-0.098,3127
5.232,-0.540,3127
5.234,-0.970,3127
5.236,-1.363,3127
5.238,-1.657,3127
5.240,-1.817,3127
5.242,-1.673,3127
5.244,-1.448,3127
5.246,-1.083,3127
5.248,-0.670,3124
5.250,-0.223,3124
5.252,0.207,3124
5.254,0.593,3124
5.256,0.890,3124
5.258,1.052,3124
5.260,1.075,3124
5.262,0.943,3124
5.264,0.688,3124
5.266,0.333,3124
5.268,-0.085,3137
5.270,-0.527,3137
5.272,-0.973,3137
5.274,-1.363,3137
5.276,-1.653,3137
5.278,-1.808,3137
5.280,-1.655,3137
5.282,-1.420,3137
5.284,-1.055,3137
5.286,-0.657,3114
5.288,-0.217,3114
5.290,0.205,3114
5.292,0.588,3114
5.294,0.870,3114
5.296,1.028,3114
5.298,1.055,3114
5.300,0.927,3114
5.302,0.667,3114
5.304,0.307,3114
5.306,-0.098,3120
5.308,-0.535,3120
5.310,-0.948,3120
5.312,-1.343,3120
5.314,-1.627,3120
5.316,-1.792,3120
5.318,-1.812,3120
5.320,-1.377,3120
5.322,-1.070,3120
5.324,-0.682,3139
5.326,-0.250,3139
5.328,0.180,3139
5.330,0.570,3139
5.332,0.863,3139
5.334,1.015,3139
5.336,1.032,3139
5.338,0.902,3139
5.340,0.652,3139
5.342,0.287,3139
5.344,-0.107,3141
5.346,-0.547,3141
5.348,-0.978,3141
5.350,-1.370,3141
5.352,-1.643,3141
5.354,-1.808,3141
5.356,-1.820,3141
5.358,-1.692,3141
5.360,-1.012,3141
5.362,-0.672,3122
5.364,-0.245,3122
5.366,0.182,3122
5.368,0.575,3122
5.370,0.863,3122
5.372,1.025,3122
5.374,1.040,3122
5.376,0.912,3122
5.378,0.657,3122
5.380,0.297,3122
5.382,-0.107,3124
5.384,-0.562,3124
5.386,-0.978,3124
5.388,-1.373,3124
5.390,-1.657,3124
5.392,-1.817,3124
5.394,-1.833,3124
5.396,-1.700,3124
5.398,-1.448,3124
5.400,-0.595,3127
5.402,0.210,3127
5.404,0.590,3127
5.406,0.897,3127
5.408,1.032,3127
5.410,1.062,3127
5.412,0.943,3127
5.414,0.688,3127
5.416,0.338,3127
5.418,-0.565,3123
5.420,-1.327,3123
5.422,-1.623,3123
5.424,-1.778,3123
5.426,-1.805,3123
5.428,-1.673,3123
5.430,-1.423,3123
5.432,-1.060,3123
5.434,-0.662,3119
5.436,-0.228,3119
5.438,0.198,3119
5.440,0.905,3119
5.442,1.052,3119
5.444,1.062,3119
5.446,0.938,3119
5.448,0.677,3119
5.450,0.318,3119
5.452,-0.087,3126
5.454,-0.530,3126
5.456,-0.963,3126
5.458,-1.350,3126
5.460,-1.635,3126
5.462,-1.792,3126
5.464,-1.815,3126
5.466,-1.688,3126
5.468,-1.427,3126
5.470,-1.062,3126
5.472,-0.665,3125
5.474,-0.245,3125
5.476,0.182,3125
5.478,0.570,3125
5.480,1.040,3125
5.482,1.060,3125
5.484,0.943,3125
5.486,0.698,3125
5.488,0.343,3125
5.490,-0.070,3124
5.492,-0.522,3124
5.494,-0.943,3124
5.496,-1.337,3124
5.498,-1.627,3124
5.500,-1.782,3124
5.502,-1.812,3124
5.504,-1.692,3124
5.506,-1.442,3124
5.508,-1.077,3124
5.510,-0.688,3121
5.512,-0.265,3121
5.514,0.152,3121
5.516,0.545,3121
5.518,0.843,3121
5.520,1.022,3121
5.522,0.910,3121
5.524,0.657,3121
5.526,0.300,3121
5.528,-0.100,3112
5.530,-0.537,3112
5.532,-0.965,3112
5.534,-1.345,3112
5.536,-1.643,3112
5.538,-1.792,3112
5.540,-1.817,3112
5.542,-1.685,3112
5.544,-1.442,3112
5.546,-1.067,3112
5.548,-0.662,3112
5.550,-0.247,3116
5.552,0.193,3116
5.554,0.573,3116
5.556,0.863,3116
5.558,1.020,3116
5.560,0.887,3116
5.562,0.667,3116
5.564,0.318,3116
5.566,-0.075,3116
5.568,-0.502,3111
5.570,-0.932,3111
5.572,-1.323,3111
5.574,-1.617,3111
5.576,-1.775,3111
5.578,-1.808,3111
5.580,-1.688,3111
5.582,-1.442,3111
5.584,-1.067,3111
5.586,-0.672,3111
5.588,-0.250,3104
5.590,0.190,3104
5.592,0.573,3104
5.594,0.868,3104
5.596,1.030,3104
5.598,1.060,3104
5.600,0.655,3104
5.602,0.350,3104
5.604,-0.062,3104
5.606,-0.495,3117
5.608,-0.938,3117
5.610,-1.327,3117
5.612,-1.620,3117
5.614,-1.790,3117
5.616,-1.823,3117
5.618,-1.702,3117
5.620,-1.458,3117
5.622,-1.097,3117
5.624,-0.705,3117
5.626,-0.278,3114
5.628,0.158,3114
5.630,0.547,3114
5.632,0.833,3114
5.634,0.995,3114
5.636,1.035,3114
5.638,0.912,3114
5.640,0.263,3114
5.642,-0.070,3114
5.644,-0.500,3101
5.646,-0.927,3101
5.648,-1.312,3101
5.650,-1.607,3101
5.652,-1.770,3101
5.654,-1.808,3101
5.656,-1.692,3101
5.658,-1.452,3101
5.660,-1.097,3101
5.662,-0.700,3101
5.664,-0.273,3111
5.666,0.152,3111
5.668,0.547,3111
5.670,0.858,3111
5.672,1.020,3111
5.674,1.060,3111
5.676,0.938,3111
5.678,0.682,3111
5.680,-0.163,3109
5.682,-0.965,3109
5.684,-1.353,3109
5.686,-1.660,3109
5.688,-1.830,3109
5.690,-1.863,3109
5.692,-1.745,3109
5.694,-1.500,3109
5.696,-1.140,3109
5.698,-0.738,3109
5.700,-0.320,3111
5.702,0.130,3111
5.704,0.527,3111
5.706,0.828,3111
5.708,1.008,3111
5.710,1.052,3111
5.712,0.938,3111
5.714,0.700,3111
5.716,0.352,3111
5.718,-0.058,3111
5.720,-0.990,3112
5.722,-1.620,3112
5.724,-1.782,3112
5.726,-1.817,3112
5.728,-1.690,3112
5.730,-1.442,3112
5.732,-1.075,3112
5.734,-0.688,3112
5.736,-0.258,3113
5.738,0.177,3113
5.740,0.550,3113
5.742,0.848,3113
5.744,1.010,3113
5.746,1.038,3113
5.748,0.917,3113
5.750,0.672,3113
5.752,0.318,3113
5.754,-0.085,3113
5.756,-0.507,3116
5.758,-0.940,3116
5.760,-1.663,3116
5.762,-1.805,3116
5.764,-1.830,3116
5.766,-1.712,3116
5.768,-1.472,3116
5.770,-1.127,3116
5.772,-0.723,3116
5.774,-0.297,3120
5.776,0.140,3120
5.778,0.535,3120
5.780,0.838,3120
5.782,0.993,3120
5.784,1.038,3120
5.786,0.927,3120
5.788,0.685,3120
5.790,0.310,3120
5.792,-0.065,3120
5.794,-0.492,3149
5.796,-0.927,3149
5.798,-1.323,3149
5.800,-1.808,3149
5.802,-1.827,3149
5.804,-1.712,3149
5.806,-1.470,3149
5.808,-1.123,3149
5.810,-0.713,3149
5.812,-0.292,3127
5.814,0.142,3127
5.816,0.532,3127
5.818,0.830,3127
5.820,1.005,3127
5.822,1.040,3127
5.824,0.927,3127
5.826,0.693,3127
5.828,0.347,3127
5.830,-0.062,3127
5.832,-0.487,3130
5.834,-0.925,3130
5.836,-1.312,3130
5.838,-1.617,3130
5.840,-1.815,3130
5.842,-1.423,3130
5.844,-1.097,3130
5.846,-0.703,3130
5.848,-0.287,3102
5.850,0.145,3102
5.852,0.540,3102
5.854,0.848,3102
5.856,1.020,3102
5.858,1.058,3102
5.860,0.940,3102
5.862,0.703,3102
5.864,0.350,3102
5.866,-0.055,3102
5.868,-0.492,3139
5.870,-0.925,3139
5.872,-1.327,3139
5.874,-1.620,3139
5.876,-1.792,3139
5.878,-1.833,3139
5.880,-1.442,3139
5.882,-0.685,3139
5.884,-0.295,3089
5.886,0.140,3089
5.888,0.532,3089
5.890,0.833,3089
5.892,1.008,3089
5.894,1.052,3089
5.896,0.940,3089
5.898,0.703,3089
5.900,0.355,3089
5.902,-0.052,3089
5.904,-0.460,3129
5.906,-0.905,3129
5.908,-1.308,3129
5.910,-1.615,3129
5.912,-1.788,3129
5.914,-1.833,3129
5.916,-1.725,3129
5.918,-1.482,3129
5.920,-0.662,3129
5.922,-0.255,3129
5.924,0.140,3129
5.926,0.527,3129
5.928,0.823,3129
5.930,0.995,3129
5.932,1.038,3129
5.934,0.927,3129
5.936,0.688,3129
5.938,0.343,3129
5.940,-0.058,3129
5.942,-0.487,3102
5.944,-0.930,3102
5.946,-1.327,3102
5.948,-1.623,3102
5.950,-1.788,3102
5.952,-1.827,3102
5.954,-1.710,3102
5.956,-1.468,3102
5.958,-1.120,3102
5.960,-0.217,3132
5.962,0.578,3132
5.964,0.848,3132
5.966,1.028,3132
5.968,1.075,3132
5.970,0.983,3132
5.972,0.740,3132
5.974,0.407,3132
5.976,-0.007,3132
5.978,-0.443,3109
5.980,-0.887,3109
5.982,-1.260,3109
5.984,-1.577,3109
5.986,-1.768,3109
5.988,-1.815,3109
5.990,-1.722,3109
5.992,-1.482,3109
5.994,-1.137,3109
5.996,-0.738,3109
5.998,-0.320,3088
6.000,0.568,3088
6.002,0.812,3088
6.004,0.985,3088
6.006,1.032,3088
6.008,0.915,3088
6.010,0.682,3088
6.012,0.338,3088
6.014,-0.060,3088
6.016,-0.487,3128
6.018,-0.922,3128
6.020,-1.315,3128
6.022,-1.623,3128
6.024,-1.792,3128
6.026,-1.843,3128
6.028,-1.740,3128
6.030,-1.505,3128
6.032,-1.147,3128
6.034,-0.743,3128
6.036,-0.328,3110
6.038,0.117,3110
6.040,0.858,3110
6.042,1.030,3110
6.044,1.052,3110
6.046,0.950,3110
6.048,0.713,3110
6.050,0.375,3110
6.052,-0.025,3110
6.054,-0.445,3110
6.056,-0.892,3126
6.058,-1.308,3126
6.060,-1.617,3126
6.062,-1.790,3126
6.064,-1.827,3126
6.066,-1.712,3126
6.068,-1.472,3126
6.070,-1.125,3126
6.072,-0.723,3126
6.074,-0.295,3126
6.076,0.135,3119
6.078,0.542,3119
6.080,1.048,3119
6.082,1.075,3119
6.084,0.983,3119
6.086,0.733,3119
6.088,0.383,3119
6.090,-0.022,3119
6.092,-0.458,3119
6.094,-0.902,3128
6.096,-1.323,3128
6.098,-1.617,3128
6.100,-1.788,3128
6.102,-1.827,3128
6.104,-1.722,3128
6.106,-1.488,3128
6.108,-1.137,3128
6.110,-0.733,3128
6.112,-0.328,3128
6.114,0.107,3116
6.116,0.507,3116
6.118,0.812,3116
6.120,1.028,3116
6.122,0.927,3116
6.124,0.695,3116
6.126,0.352,3116
6.128,-0.045,3116
6.130,-0.460,3116
6.132,-0.892,3120
6.134,-1.298,3120
6.136,-1.583,3120
6.138,-1.748,3120
6.140,-1.805,3120
6.142,-1.698,3120
6.144,-1.468,3120
6.146,-1.125,3120
6.148,-0.725,3120
6.150,-0.300,3120
6.152,0.133,3126
6.154,0.540,3126
6.156,0.973,3126
6.158,1.038,3126
6.160,0.998,3126
6.162,0.667,3126
6.164,0.407,3126
6.166,0.065,3126
6.168,-0.463,3126
6.170,-0.868,3105
6.172,-1.308,3105
6.174,-1.613,3105
6.176,-1.790,3105
6.178,-1.850,3105
6.180,-1.742,3105
6.182,-1.508,3105
6.184,-1.135,3105
6.186,-0.743,3105
6.188,-0.338,3105
6.190,0.107,3105
6.192,0.532,3105
6.194,0.843,3105
6.196,1.028,3105
6.198,1.077,3105
6.200,0.693,3105
6.202,0.398,3105
6.204,-0.013,3105
6.206,-0.432,3105
6.208,-0.870,3113
6.210,-1.288,3113
6.212,-1.583,3113
6.214,-1.770,3113
6.216,-1.808,3113
6.218,-1.698,3113
6.220,-1.462,3113
6.222,-1.125,3113
6.224,-0.713,3113
6.226,-0.292,3113
6.228,0.142,3114
6.230,0.547,3114
6.232,0.858,3114
6.234,1.030,3114
6.236,1.077,3114
6.238,0.978,3114
6.240,0.338,3114
6.242,-0.007,3114
6.244,-0.422,3114
6.246,-0.853,3131
6.248,-1.258,3131
6.250,-1.567,3131
6.252,-1.742,3131
6.254,-1.802,3131
6.256,-1.698,3131
6.258,-1.470,3131
6.260,-1.133,3131
6.262,-0.743,3131
6.264,-0.335,3131
6.266,0.105,3118
6.268,0.510,3118
6.270,0.797,3118
6.272,0.988,3118
6.274,1.032,3118
6.276,0.935,3118
6.278,0.703,3118
6.280,-0.102,3118
6.282,-0.537,3118
6.284,-0.887,3126
6.286,-1.292,3126
6.288,-1.583,3126
6.290,-1.765,3126
6.292,-1.808,3126
6.294,-1.702,3126
6.296,-1.470,3126
6.298,-1.127,3126
6.300,-0.738,3126
6.302,-0.330,3126
6.304,0.105,3069
6.306,0.507,3069
6.308,0.820,3069
6.310,0.993,3069
6.312,1.048,3069
6.314,0.943,3069
6.316,0.708,3069
6.318,0.367,3069
6.320,-0.547,3069
6.322,-0.912,3106
6.324,-1.333,3106
6.326,-1.627,3106
6.328,-1.808,3106
6.330,-1.853,3106
6.332,-1.745,3106
6.334,-1.508,3106
6.336,-1.160,3106
6.338,-0.750,3106
6.340,-0.338,3106
6.342,0.100,3120
6.344,0.510,3120
6.346,0.823,3120
6.348,1.015,3120
6.350,1.067,3120
6.352,0.958,3120
6.354,0.728,3120
6.356,0.380,3120
6.358,-0.033,3120
6.360,-0.980,3136
6.362,-1.643,3136
6.364,-1.823,3136
6.366,-1.883,3136
6.368,-1.788,3136
6.370,-1.550,3136
6.372,-1.210,3136
6.374,-0.787,3136
6.376,-0.367,3136
6.378,0.098,3121
6.380,0.517,3121
6.382,0.848,3121
6.384,1.032,3121
6.386,1.097,3121
6.388,1.010,3121
6.390,0.777,3121
6.392,0.432,3121
6.394,0.043,3121
6.396,-0.403,3121
6.398,-0.845,3146
6.400,-1.627,3146
6.402,-1.778,3146
6.404,-1.840,3146
6.406,-1.738,3146
6.408,-1.522,3146
6.410,-1.177,3146
6.412,-0.780,3146
6.414,-0.362,3146
6.416,0.087,3136
6.418,0.492,3136
6.420,0.785,3136
6.422,0.978,3136
6.424,1.028,3136
6.426,0.927,3136
6.428,0.705,3136
6.430,0.362,3136
6.432,-0.033,3136
6.434,-0.450,3136
6.436,-0.882,3132
6.438,-1.288,3132
6.440,-1.782,3132
6.442,-1.817,3132
6.444,-1.702,3132
6.446,-1.500,3132
6.448,-1.150,3132
6.450,-0.748,3132
6.452,-0.338,3132
6.454,0.098,3137
6.456,0.500,3137
6.458,0.818,3137
6.460,0.993,3137
6.462,1.048,3137
6.464,0.953,3137
6.466,0.718,3137
6.468,0.393,3137
6.470,-0.018,3137
6.472,-0.427,3137
6.474,-0.865,3126
6.476,-1.298,3126
6.478,-1.613,3126
6.480,-1.847,3126
6.482,-1.770,3126
6.484,-1.532,3126
6.486,-1.188,3126
6.488,-0.785,3126
6.490,-0.367,3126
6.492,0.068,3113
6.494,0.468,3113
6.496,0.785,3113
6.498,0.990,3113
6.500,1.058,3113
6.502,0.958,3113
6.504,0.740,3113
6.506,0.410,3113
6.508,0.020,3113
6.510,-0.410,3113
6.512,-0.853,3118
6.514,-1.255,3118
6.516,-1.575,3118
6.518,-1.770,3118
6.520,-1.708,3118
6.522,-1.508,3118
6.524,-1.153,3118
6.526,-0.752,3118
6.528,-0.338,3118
6.530,0.107,3125
6.532,0.507,3125
6.534,0.823,3125
6.536,1.012,3125
6.538,1.077,3125
6.540,0.993,3125
6.542,0.767,3125
6.544,0.425,3125
6.546,0.037,3125
6.548,-0.390,3125
6.550,-0.823,3117
6.552,-1.232,3117
6.554,-1.562,3117
6.556,-1.748,3117
6.558,-1.812,3117
6.560,-1.452,3117
6.562,-0.708,3117
6.564,-0.338,3117
6.566,0.102,3117
6.568,0.497,3113
6.570,0.812,3113
6.572,0.990,3113
6.574,1.048,3113
6.576,0.943,3113
6.578,0.713,3113
6.580,0.383,3113
6.582,-0.022,3113
6.584,-0.435,3113
6.586,-0.873,3113
6.588,-1.292,3124
6.590,-1.613,3124
6.592,-1.792,3124
6.594,-1.847,3124
6.596,-1.762,3124
6.598,-1.528,3124
6.600,-0.723,3124
6.602,-0.365,3124
6.604,0.068,3124
6.606,0.460,3101
6.608,0.787,3101
6.610,0.983,3101
6.612,1.048,3101
6.614,0.958,3101
6.616,0.730,3101
6.618,0.390,3101
6.620,-0.010,3101
6.622,-0.422,3101
6.624,-0.858,3101
6.626,-1.258,3108
6.628,-1.585,3108
6.630,-1.778,3108
6.632,-1.833,3108
6.634,-1.740,3108
6.636,-1.522,3108
6.638,-1.177,3108
6.640,-0.285,3108
6.642,0.522,3108
6.644,0.823,3108
6.646,1.018,3108
6.648,1.077,3108
6.650,0.998,3108
6.652,0.780,3108
6.654,0.440,3108
6.656,0.052,3108
6.658,-0.383,3108
6.660,-0.823,3108
6.662,-1.225,3139
6.664,-1.562,3139
6.666,-1.768,3139
6.668,-1.827,3139
6.670,-1.738,3139
6.672,-1.525,3139
6.674,-1.177,3139
6.676,-0.787,3139
6.678,-0.372,3139
6.680,0.537,3088
6.682,0.988,3088
6.684,1.058,3088
6.686,0.973,3088
6.688,0.743,3088
6.690,0.412,3088
6.692,0.020,3088
6.694,-0.412,3088
6.696,-0.850,3088
6.698,-1.255,3111
6.700,-1.580,3111
6.702,-1.772,3111
6.704,-1.823,3111
6.706,-1.728,3111
6.708,-1.500,3111
6.710,-1.150,3111
6.712,-0.750,3111
6.714,-0.338,3111
6.716,0.107,3111
6.718,0.510,3124
6.720,1.048,3124
6.722,1.093,3124
6.724,1.002,3124
6.726,0.775,3124
6.728,0.438,3124
6.730,0.052,3124
6.732,-0.383,3124
6.734,-0.823,3124
6.736,-1.222,3119
6.738,-1.562,3119
6.740,-1.748,3119
6.742,-1.817,3119
6.744,-1.728,3119
6.746,-1.508,3119
6.748,-1.173,3119
6.750,-0.777,3119
6.752,-0.335,3119
6.754,0.077,3119
6.756,0.470,3113
6.758,0.795,3113
6.760,1.035,3113
6.762,0.940,3113
6.764,0.715,3113
6.766,0.388,3113
6.768,-0.007,3113
6.770,-0.453,3113
6.772,-0.848,3113
6.774,-1.242,3124
6.776,-1.580,3124
6.778,-1.768,3124
6.780,-1.833,3124
6.782,-1.745,3124
6.784,-1.528,3124
6.786,-1.180,3124
6.788,-0.772,3124
6.790,-0.352,3124
6.792,0.090,3124
6.794,0.502,3123
6.796,0.828,3123
6.798,1.030,3123
6.800,0.983,3123
6.802,0.780,3123
6.804,0.448,3123
6.806,0.058,3123
6.808,-0.380,3123
6.810,-0.823,3123
6.812,-1.232,3127
6.814,-1.570,3127
6.816,-1.768,3127
6.818,-1.823,3127
6.820,-1.742,3127
6.822,-1.512,3127
6.824,-1.175,3127
6.826,-0.767,3127
6.828,-0.343,3127
6.830,0.100,3127
6.832,0.507,3125
6.834,0.838,3125
6.836,1.022,3125
6.838,1.093,3125
6.840,0.738,3125
6.842,0.438,3125
6.844,0.058,3125
6.846,-0.378,3125
6.848,-0.815,3125
6.850,-1.222,3149
6.852,-1.567,3149
6.854,-1.768,3149
6.856,-1.827,3149
6.858,-1.738,3149
6.860,-1.522,3149
6.862,-1.177,3149
6.864,-0.777,3149
6.866,-0.360,3149
6.868,0.087,3149
6.870,0.477,3132
6.872,0.818,3132
6.874,1.008,3132
6.876,1.070,3132
6.878,0.990,3132
6.880,0.372,3132
6.882,0.022,3132
6.884,-0.393,3132
6.886,-0.830,3132
6.888,-1.302,3144
6.890,-1.782,3144
6.892,-1.850,3144
6.894,-1.770,3144
6.896,-1.548,3144
6.898,-1.208,3144
6.900,-0.812,3144
6.902,-0.398,3144
6.904,0.043,3144
6.906,0.455,3131
6.908,0.782,3131
6.910,0.983,3131
6.912,1.058,3131
6.914,0.990,3131
6.916,0.767,3131
6.918,0.448,3131
6.920,-0.422,3131
6.922,-0.800,3131
6.924,-1.200,3122
6.926,-1.538,3122
6.928,-1.772,3122
6.930,-1.808,3122
6.932,-1.715,3122
6.934,-1.510,3122
6.936,-1.183,3122
6.938,-0.780,3122
6.940,-0.367,3122
6.942,0.098,3122
6.944,0.502,3155
6.946,1.030,3155
6.948,1.095,3155
6.950,0.988,3155
6.952,0.777,3155
6.954,0.448,3155
6.956,0.062,3155
6.958,-0.378,3155
6.960,-1.298,3129
6.962,-1.770,3129
6.964,-1.827,3129
6.966,-1.732,3129
6.968,-1.522,3129
6.970,-1.177,3129
6.972,-0.708,3129
6.974,-0.273,3129
6.976,0.065,3129
6.978,0.458,3123
6.980,0.998,3123
6.982,1.060,3123
6.984,0.990,3123
6.986,0.777,3123
6.988,0.448,3123
6.990,0.058,3123
6.992,-0.370,3123
6.994,-0.807,3123
6.996,-1.210,3155
6.998,-1.550,3155
7.000,-1.817,3155
7.002,-1.738,3155
7.004,-1.522,3155
7.006,-1.185,3155
7.008,-0.782,3155
7.010,-0.372,3155
7.012,0.060,3155
7.014,0.458,3121
7.016,0.777,3121
7.018,0.958,3121
7.020,1.030,3121
7.022,0.943,3121
7.024,0.728,3121
7.026,0.390,3121
7.028,-0.015,3121
7.030,-0.425,3121
7.032,-0.855,3121
7.034,-1.252,3116
7.036,-1.600,3116
7.038,-1.782,3116
7.040,-1.738,3116
7.042,-1.528,3116
7.044,-1.208,3116
7.046,-0.818,3116
7.048,-0.403,3116
7.050,0.052,3116
7.052,0.463,3118
7.054,0.785,3118
7.056,0.993,3118
7.058,1.058,3118
7.060,0.983,3118
7.062,0.755,3118
7.064,0.427,3118
7.066,0.043,3118
7.068,-0.378,3118
7.070,-0.818,3118
7.072,-1.218,3118
7.074,-1.562,3105
7.076,-1.778,3105
7.078,-1.853,3105
7.080,-1.510,3105
7.082,-1.222,3105
7.084,-0.830,3105
7.086,-0.410,3105
7.088,0.048,3105
7.090,0.453,3105
7.092,0.777,3109
7.094,0.983,3109
7.096,1.060,3109
7.098,0.985,3109
7.100,0.767,3109
7.102,0.432,3109
7.104,0.052,3109
7.106,-0.372,3109
7.108,-0.807,3109
7.110,-1.215,3109
7.112,-1.550,3115
7.114,-1.765,3115
7.116,-1.840,3115
7.118,-1.772,3115
7.120,-1.183,3115
7.122,-0.858,3115
7.124,-0.443,3115
7.126,0.018,3115
7.128,0.420,3115
7.130,0.767,3112
7.132,0.983,3112
7.134,1.058,3112
7.136,0.990,3112
7.138,0.782,3112
7.140,0.465,3112
7.142,0.077,3112
7.144,-0.338,3112
7.146,-0.770,3112
7.148,-1.188,3112
7.150,-1.532,3110
7.152,-1.738,3110
7.154,-1.820,3110
7.156,-1.738,3110
7.158,-1.532,3110
7.160,-0.743,3110
7.162,-0.380,3110
7.164,0.037,3110
7.166,0.448,3110
7.168,0.772,3115
7.170,0.995,3115
7.172,1.075,3115
7.174,0.993,3115
7.176,0.782,3115
7.178,0.460,3115
7.180,0.068,3115
7.182,-0.362,3115
7.184,-0.802,3115
7.186,-1.202,3115
7.188,-1.538,3102
7.190,-1.738,3102
7.192,-1.815,3102
7.194,-1.732,3102
7.196,-1.522,3102
7.198,-1.188,3102
7.200,-0.323,3102
7.202,0.052,3102
7.204,0.450,3102
7.206,0.780,3121
7.208,1.002,3121
7.210,1.075,3121
7.212,1.008,3121
7.214,0.790,3121
7.216,0.463,3121
7.218,0.077,3121
7.220,-0.350,3121
7.222,-0.782,3121
7.224,-1.205,3121
7.226,-1.538,3114
7.228,-1.742,3114
7.230,-1.823,3114
7.232,-1.768,3114
7.234,-1.548,3114
7.236,-1.222,3114
7.238,-0.833,3114
7.240,0.107,3114
7.242,0.450,3114
7.244,0.792,3120
7.246,1.018,3120
7.248,1.093,3120
7.250,1.028,3120
7.252,0.818,3120
7.254,0.472,3120
7.256,0.092,3120
7.258,-0.333,3120
7.260,-0.772,3120
7.262,-1.188,3120
7.264,-1.538,3115
7.266,-1.748,3115
7.268,-1.843,3115
7.270,-1.775,3115
7.272,-1.567,3115
7.274,-1.230,3115
7.276,-0.843,3115
7.278,-0.417,3115
7.280,0.507,3115
7.282,0.777,3134
7.284,0.998,3134
7.286,1.067,3134
7.288,0.995,3134
7.290,0.782,3134
7.292,0.458,3134
7.294,0.065,3134
7.296,-0.372,3134
7.298,-0.812,3134
7.300,-1.228,3134
7.302,-1.567,3105
7.304,-1.772,3105
7.306,-1.847,3105
7.308,-1.780,3105
7.310,-1.570,3105
7.312,-1.238,3105
7.314,-0.848,3105
7.316,-0.422,3105
7.318,0.015,3105
7.320,0.787,3127
7.322,1.040,3127
7.324,0.980,3127
7.326,0.755,3127
7.328,0.432,3127
7.330,0.068,3127
7.332,-0.362,3127
7.334,-0.805,3127
7.336,-1.212,3127
7.338,-1.565,3123
7.340,-1.778,3123
7.342,-1.855,3123
7.344,-1.802,3123
7.346,-1.585,3123
7.348,-1.258,3123
7.350,-0.868,3123
7.352,-0.453,3123
7.354,-0.018,3123
7.356,0.398,3123
7.358,0.740,3127
7.360,1.058,3127
7.362,0.998,3127
7.364,0.787,3127
7.366,0.463,3127
7.368,0.070,3127
7.370,-0.362,3127
7.372,-0.802,3127
7.374,-1.205,3127
7.376,-1.538,3136
7.378,-1.742,3136
7.380,-1.823,3136
7.382,-1.748,3136
7.384,-1.550,3136
7.386,-1.228,3136
7.388,-0.845,3136
7.390,-0.422,3136
7.392,-0.005,3136
7.394,0.420,3136
7.396,0.752,3102
7.398,0.973,3102
7.400,0.955,3102
7.402,0.787,3102
7.404,0.468,3102
7.406,0.087,3102
7.408,-0.347,3102
7.410,-0.782,3102
7.412,-1.202,3102
7.414,-1.538,3148
7.416,-1.768,3148
7.418,-1.843,3148
7.420,-1.780,3148
7.422,-1.573,3148
7.424,-1.248,3148
7.426,-0.855,3148
7.428,-0.435,3148
7.430,-0.007,3148
7.432,0.412,3148
7.434,0.750,3138
7.436,0.958,3138
7.438,1.038,3138
7.440,0.713,3138
7.442,0.432,3138
7.444,0.058,3138
7.446,-0.372,3138
7.448,-0.802,3138
7.450,-1.202,3138
7.452,-1.540,3143
7.454,-1.768,3143
7.456,-1.847,3143
7.458,-1.780,3143
7.460,-1.567,3143
7.462,-1.238,3143
7.464,-0.853,3143
7.466,-0.432,3143
7.468,-0.007,3143
7.470,0.427,3143
7.472,0.757,3143
7.474,0.978,3143
7.476,1.058,3143
7.478,1.008,3143
7.480,0.432,3143
7.482,0.102,3143
7.484,-0.323,3143
7.486,-0.752,3143
7.488,-1.165,3143
7.490,-1.498,3115
7.492,-1.722,3115
7.494,-1.812,3115
7.496,-1.742,3115
7.498,-1.542,3115
7.500,-1.218,3115
7.502,-0.840,3115
7.504,-0.417,3115
7.506,0.022,3115
7.508,0.435,3115
7.510,0.772,3115
7.512,0.988,3115
7.514,1.065,3115
7.516,1.010,3115
7.518,0.797,3115
7.520,0.037,3115
7.522,-0.328,3115
7.524,-0.752,3115
7.526,-1.163,3115
7.528,-1.505,3125
7.530,-1.722,3125
7.532,-1.808,3125
7.534,-1.748,3125
7.536,-1.548,3125
7.538,-1.222,3125
7.540,-0.843,3125
7.542,-0.417,3125
7.544,0.022,3125
7.546,0.427,3125
7.548,0.767,3125
7.550,0.980,3125
7.552,1.060,3125
7.554,1.008,3125
7.556,0.790,3125
7.558,0.470,3125
7.560,-0.383,3125
7.562,-0.740,3125
7.564,-1.147,3125
7.566,-1.498,3125
7.568,-1.715,3119
7.570,-1.812,3119
7.572,-1.765,3119
7.574,-1.552,3119
7.576,-1.230,3119
7.578,-0.853,3119
7.580,-0.443,3119
7.582,-0.022,3119
7.584,0.398,3119
7.586,0.738,3119
7.588,0.943,3104
7.590,1.032,3104
7.592,0.973,3104
7.594,0.757,3104
7.596,0.438,3104
7.598,0.068,3104
7.600,-0.848,3104
7.602,-1.183,3104
7.604,-1.532,3104
7.606,-1.742,3113
7.608,-1.827,3113
7.610,-1.762,3113
7.612,-1.552,3113
7.614,-1.218,3113
7.616,-0.830,3113
7.618,-0.420,3113
7.620,-0.003,3113
7.622,0.420,3113
7.624,0.750,3113
7.626,0.958,3112
7.628,1.058,3112
7.630,0.995,3112
7.632,0.787,3112
7.634,0.468,3112
7.636,0.090,3112
7.638,-0.333,3112
7.640,-1.228,3112
7.642,-1.528,3112
7.644,-1.732,3101
7.646,-1.827,3101
7.648,-1.775,3101
7.650,-1.567,3101
7.652,-1.238,3101
7.654,-0.853,3101
7.656,-0.427,3101
7.658,-0.007,3101
7.660,0.422,3101
7.662,0.767,3101
7.664,0.988,3092
7.666,1.073,3092
7.668,1.022,3092
7.670,0.823,3092
7.672,0.502,3092
7.674,0.105,3092
7.676,-0.305,3092
7.678,-0.743,3092
7.680,-1.548,3109
7.682,-1.823,3109
7.684,-1.770,3109
7.686,-1.567,3109
7.688,-1.238,3109
7.690,-0.860,3109
7.692,-0.453,3109
7.694,-0.028,3109
7.696,0.388,3109
7.698,0.728,3109
7.700,0.948,3130
7.702,1.050,3130
7.704,0.995,3130
7.706,0.797,3130
7.708,0.495,3130
7.710,0.102,3130
7.712,-0.323,3130
7.714,-0.750,3130
7.716,-1.192,3130
7.718,-1.532,3130
7.720,-1.853,3102
7.722,-1.567,3102
7.724,-1.248,3102
7.726,-0.863,3102
7.728,-0.438,3102
7.730,-0.010,3102
7.732,0.417,3102
7.734,0.755,3102
7.736,0.980,3128
7.738,1.065,3128
7.740,1.012,3128
7.742,0.815,3128
7.744,0.502,3128
7.746,0.107,3128
7.748,-0.300,3128
7.750,-0.733,3128
7.752,-1.147,3128
7.754,-1.500,3128
7.756,-1.722,3111
7.758,-1.820,3111
7.760,-1.528,3111
7.762,-1.252,3111
7.764,-0.885,3111
7.766,-0.463,3111
7.768,-0.043,3111
7.770,0.378,3111
7.772,0.718,3111
7.774,0.943,3089
7.776,1.050,3089
7.778,0.988,3089
7.780,0.787,3089
7.782,0.468,3089
7.784,0.092,3089
7.786,-0.333,3089
7.788,-0.752,3089
7.790,-1.177,3089
7.792,-1.530,3089
7.794,-1.738,3127
7.796,-1.833,3127
7.798,-1.788,3127
7.800,-1.210,3127
7.802,-0.887,3127
7.804,-0.463,3127
7.806,-0.028,3127
7.808,0.398,3127
7.810,0.752,3127
7.812,0.985,3136
7.814,1.073,3136
7.816,1.025,3136
7.818,0.823,3136
7.820,0.505,3136
7.822,0.113,3136
7.824,-0.323,3136
7.826,-0.752,3136
7.828,-1.175,3136
7.830,-1.522,3136
7.832,-1.742,3128
7.834,-1.843,3128
7.836,-1.790,3128
7.838,-1.583,3128
7.840,-0.812,3128
7.842,-0.458,3128
7.844,-0.030,3128
7.846,0.407,3128
7.848,0.740,3128
7.850,0.953,3126
7.852,1.055,3126
7.854,1.008,3126
7.856,0.795,3126
7.858,0.472,3126
7.860,0.098,3126
7.862,-0.333,3126
7.864,-0.762,3126
7.866,-1.177,3126
7.868,-1.525,3126
7.870,-1.748,3137
7.872,-1.840,3137
7.874,-1.792,3137
7.876,-1.605,3137
7.878,-1.268,3137
7.880,-0.412,3137
7.882,-0.052,3137
7.884,0.380,3137
7.886,0.718,3137
7.888,0.948,3132
7.890,1.052,3132
7.892,0.998,3132
7.894,0.797,3132
7.896,0.495,3132
7.898,0.105,3132
7.900,-0.302,3132
7.902,-0.748,3132
7.904,-1.167,3132
7.906,-1.522,3132
7.908,-1.762,3128
7.910,-1.833,3128
7.912,-1.782,3128
7.914,-1.585,3128
7.916,-1.260,3128
7.918,-0.885,3128
7.920,0.037,3128
7.922,0.383,3128
7.924,0.730,3128
7.926,0.958,3136
7.928,1.058,3136
7.930,1.012,3136
7.932,0.818,3136
7.934,0.502,3136
7.936,0.107,3136
7.938,-0.328,3136
7.940,-0.752,3136
7.942,-1.180,3136
7.944,-1.535,3136
7.946,-1.765,3135
7.948,-1.857,3135
7.950,-1.808,3135
7.952,-1.610,3135
7.954,-1.290,3135
7.956,-0.887,3135
7.958,-0.463,3135
7.960,0.455,3135
7.962,0.740,3135
7.964,0.955,3121
7.966,1.058,3121
7.968,1.010,3121
7.970,0.820,3121
7.972,0.502,3121
7.974,0.117,3121
7.976,-0.300,3121
7.978,-0.738,3121
7.980,-1.147,3121
7.982,-1.492,3121
7.984,-1.710,3129
7.986,-1.817,3129
7.988,-1.772,3129
7.990,-1.570,3129
7.992,-1.252,3129
7.994,-0.863,3129
7.996,-0.435,3129
7.998,-0.018,3129
8.000,0.820,3129
8.002,1.005,3123
8.004,1.093,3123
8.006,1.048,3123
8.008,0.855,3123
8.010,0.540,3123
8.012,0.142,3123
8.014,-0.282,3123
8.016,-0.728,3123
8.018,-1.147,3123
8.020,-1.502,3123
8.022,-1.738,3144
8.024,-1.843,3144
8.026,-1.805,3144
8.028,-1.613,3144
8.030,-1.302,3144
8.032,-0.905,3144
8.034,-0.487,3144
8.036,-0.050,3144
8.038,0.380,3144
8.040,0.980,3132
8.042,1.008,3132
8.044,0.787,3132
8.046,0.525,3132
8.048,0.140,3132
8.050,-0.268,3132
8.052,-0.708,3132
8.054,-1.127,3132
8.056,-1.485,3132
8.058,-1.712,3091
8.060,-1.827,3091
8.062,-1.790,3091
8.064,-1.607,3091
8.066,-1.298,3091
8.068,-0.897,3091
8.070,-0.490,3091
8.072,-0.050,3091
8.074,0.383,3091
8.076,0.738,3091
8.078,0.975,3091
8.080,1.012,3110
8.082,0.472,3110
8.084,0.128,3110
8.086,-0.273,3110
8.088,-0.710,3110
8.090,-1.133,3110
8.092,-1.482,3110
8.094,-1.708,3110
8.096,-1.812,3119
8.098,-1.762,3119
8.100,-1.583,3119
8.102,-1.288,3119
8.104,-0.900,3119
8.106,-0.492,3119
8.108,-0.062,3119
8.110,0.380,3119
8.112,0.728,3119
8.114,0.950,3119
8.116,1.058,3119
8.118,1.018,3119
8.120,0.458,3119
8.122,0.142,3119
8.124,-0.263,3119
8.126,-0.693,3119
8.128,-1.100,3119
8.130,-1.452,3119
8.132,-1.683,3119
8.134,-1.785,3111
8.136,-1.745,3111
8.138,-1.577,3111
8.140,-1.288,3111
8.142,-0.900,3111
8.144,-0.492,3111
8.146,-0.065,3111
8.148,0.357,3111
8.150,0.710,3111
8.152,0.938,3111
8.154,1.050,3115
8.156,1.012,3115
8.158,0.833,3115
8.160,0.077,3115
8.162,-0.268,3115
8.164,-0.705,3115
8.166,-1.130,3115
8.168,-1.492,3115
8.170,-1.722,3115
8.172,-1.833,3100
8.174,-1.792,3100
8.176,-1.613,3100
8.178,-1.308,3100
8.180,-0.922,3100
8.182,-0.507,3100
8.184,-0.072,3100
8.186,0.343,3100
8.188,0.690,3100
8.190,0.915,3100
8.192,1.025,3104
8.194,0.988,3104
8.196,0.812,3104
8.198,0.505,3104
8.200,-0.367,3104
8.202,-0.730,3104
8.204,-1.143,3104
8.206,-1.498,3104
8.208,-1.728,3104
8.210,-1.827,3099
8.212,-1.782,3099
8.214,-1.603,3099
8.216,-1.288,3099
8.218,-0.892,3099
8.220,-0.465,3099
8.222,-0.048,3099
8.224,0.383,3099
8.226,0.730,3099
8.228,0.950,3099
8.230,1.052,3114
8.232,1.010,3114
8.234,0.828,3114
8.236,0.517,3114
8.238,0.138,3114
8.240,-0.782,3114
8.242,-1.137,3114
8.244,-1.492,3114
8.246,-1.718,3114
8.248,-1.823,3116
8.250,-1.782,3116
8.252,-1.610,3116
8.254,-1.305,3116
8.256,-0.907,3116
8.258,-0.497,3116
8.260,-0.058,3116
8.262,0.370,3116
8.264,0.728,3116
8.266,0.958,3116
8.268,1.075,3126
8.270,1.038,3126
8.272,0.858,3126
8.274,0.552,3126
8.276,0.172,3126
8.278,-0.253,3126
8.280,-1.185,3126
8.282,-1.498,3126
8.284,-1.732,3126
8.286,-1.827,3131
8.288,-1.782,3131
8.290,-1.585,3131
8.292,-1.290,3131
8.294,-0.887,3131
8.296,-0.453,3131
8.298,-0.028,3131
8.300,0.398,3131
8.302,0.757,3131
8.304,1.008,3131
8.306,1.100,3107
8.308,1.058,3107
8.310,0.860,3107
8.312,0.542,3107
8.314,0.142,3107
8.316,-0.282,3107
8.318,-0.728,3107
8.320,-1.552,3107
8.322,-1.732,3107
8.324,-1.843,3118
8.326,-1.790,3118
8.328,-1.607,3118
8.330,-1.292,3118
8.332,-0.892,3118
8.334,-0.485,3118
8.336,-0.050,3118
8.338,0.372,3118
8.340,0.715,3118
8.342,0.950,3118
8.344,1.055,3133
8.346,1.020,3133
8.348,0.845,3133
8.350,0.537,3133
8.352,0.152,3133
8.354,-0.263,3133
8.356,-0.703,3133
8.358,-1.127,3133
8.360,-1.748,3133
8.362,-1.843,3136
8.364,-1.812,3136
8.366,-1.630,3136
8.368,-1.335,3136
8.370,-0.938,3136
8.372,-0.532,3136
8.374,-0.098,3136
8.376,0.333,3136
8.378,0.703,3136
8.380,0.938,3136
8.382,1.040,3136
8.384,1.022,3136
8.386,0.845,3136
8.388,0.532,3136
8.390,0.147,3136
8.392,-0.263,3136
8.394,-0.705,3136
8.396,-1.133,3136
8.398,-1.498,3136
8.400,-1.853,3134
8.402,-1.627,3134
8.404,-1.333,3134
8.406,-0.945,3134
8.408,-0.540,3134
8.410,-0.107,3134
8.412,0.318,3134
8.414,0.688,3134
8.416,0.927,3134
8.418,1.038,3132
8.420,0.998,3132
8.422,0.823,3132
8.424,0.522,3132
8.426,0.133,3132
8.428,-0.287,3132
8.430,-0.723,3132
8.432,-1.143,3132
8.434,-1.502,3132
8.436,-1.740,3132
8.438,-1.843,3126
8.440,-1.583,3126
8.442,-1.333,3126
8.444,-0.940,3126
8.446,-0.527,3126
8.448,-0.092,3126
8.450,0.343,3126
8.452,0.708,3126
8.454,0.950,3126
8.456,1.062,3148
8.458,1.022,3148
8.460,0.850,3148
8.462,0.547,3148
8.464,0.177,3148
8.466,-0.247,3148
8.468,-0.682,3148
8.470,-1.103,3148
8.472,-1.470,3148
8.474,-1.700,3148
8.476,-1.817,3130
8.478,-1.790,3130
8.480,-1.232,3130
8.482,-0.912,3130
8.484,-0.497,3130
8.486,-0.043,3130
8.488,0.367,3130
8.490,0.718,3130
8.492,0.953,3130
8.494,1.060,3127
8.496,1.020,3127
8.498,0.828,3127
8.500,0.527,3127
8.502,0.140,3127
8.504,-0.273,3127
8.506,-0.713,3127
8.508,-1.143,3127
8.510,-1.502,3127
8.512,-1.740,3127
8.514,-1.853,3131
8.516,-1.817,3131
8.518,-1.647,3131
8.520,-0.885,3131
8.522,-0.532,3131
8.524,-0.095,3131
8.526,0.338,3131
8.528,0.703,3131
8.530,0.945,3131
8.532,1.062,3117
8.534,1.028,3117
8.536,0.853,3117
8.538,0.542,3117
8.540,0.158,3117
8.542,-0.260,3117
8.544,-0.698,3117
8.546,-1.135,3117
8.548,-1.498,3117
8.550,-1.742,3117
8.552,-1.860,3128
8.554,-1.845,3128
8.556,-1.667,3128
8.558,-1.373,3128
8.560,-0.497,3128
8.562,-0.135,3128
8.564,0.292,3128
8.566,0.657,3128
8.568,0.912,3128
8.570,1.030,3126
8.572,1.002,3126
8.574,0.830,3126
8.576,0.532,3126
8.578,0.152,3126
8.580,-0.260,3126
8.582,-0.698,3126
8.584,-1.123,3126
8.586,-1.485,3126
8.588,-1.712,3126
8.590,-1.823,3126
8.592,-1.792,3116
8.594,-1.617,3116
8.596,-1.312,3116
8.598,-0.927,3116
8.600,-0.020,3116
8.602,0.340,3116
8.604,0.698,3116
8.606,0.945,3116
8.608,1.058,3116
8.610,1.028,3113
8.612,0.845,3113
8.614,0.537,3113
8.616,0.147,3113
8.618,-0.263,3113
8.620,-0.703,3113
8.622,-1.127,3113
8.624,-1.482,3113
8.626,-1.708,3113
8.628,-1.827,3113
8.630,-1.790,3121
8.632,-1.607,3121
8.634,-1.308,3121
8.636,-0.912,3121
8.638,-0.507,3121
8.640,0.417,3121
8.642,0.975,3121
8.644,1.062,3121
8.646,1.028,3100
8.648,0.850,3100
8.650,0.552,3100
8.652,0.180,3100
8.654,-0.247,3100
8.656,-0.688,3100
8.658,-1.100,3100
8.660,-1.468,3100
8.662,-1.702,3100
8.664,-1.820,3100
8.666,-1.792,3120
8.668,-1.620,3120
8.670,-1.323,3120
8.672,-0.930,3120
8.674,-0.530,3120
8.676,-0.102,3120
8.678,0.312,3120
8.680,0.950,3120
8.682,1.052,3106
8.684,0.833,3106
8.686,0.547,3106
8.688,0.177,3106
8.690,-0.247,3106
8.692,-0.670,3106
8.694,-1.090,3106
8.696,-1.452,3106
8.698,-1.690,3106
8.700,-1.808,3106
8.702,-1.778,3120
8.704,-1.605,3120
8.706,-1.323,3120
8.708,-0.943,3120
8.710,-0.535,3120
8.712,-0.100,3120
8.714,0.318,3120
8.716,0.693,3120
8.718,0.940,3120
8.720,1.018,3124
8.722,0.573,3124
8.724,0.207,3124
8.726,-0.212,3124
8.728,-0.652,3124
8.730,-1.067,3124
8.732,-1.442,3124
8.734,-1.685,3124
8.736,-1.802,3124
8.738,-1.778,3111
8.740,-1.607,3111
8.742,-1.308,3111
8.744,-0.927,3111
8.746,-0.522,3111
8.748,-0.098,3111
8.750,0.338,3111
8.752,0.695,3111
8.754,0.940,3111
8.756,1.065,3111
8.758,1.048,3121
8.760,0.502,3121
8.762,0.212,3121
8.764,-0.255,3121
8.766,-0.650,3121
8.768,-1.067,3121
8.770,-1.440,3121
8.772,-1.685,3121
8.774,-1.800,3121
8.776,-1.782,3124
8.778,-1.613,3124
8.780,-1.323,3124
8.782,-0.930,3124
8.784,-0.522,3124
8.786,-0.095,3124
8.788,0.333,3124
8.790,0.698,3124
8.792,0.943,3124
8.794,1.067,3124
8.796,1.048,3132
8.798,0.877,3132
8.800,0.133,3132
8.802,-0.223,3132
8.804,-0.662,3132
8.806,-1.093,3132
8.808,-1.460,3132
8.810,-1.702,3132
8.812,-1.823,3132
8.814,-1.810,3140
8.816,-1.640,3140
8.818,-1.350,3140
8.820,-0.978,3140
8.822,-0.562,3140
8.824,-0.128,3140
8.826,0.292,3140
8.828,0.662,3140
8.830,0.912,3140
8.832,1.035,3140
8.834,1.022,3120
8.836,0.853,3120
8.838,0.557,3120
8.840,-0.328,3120
8.842,-0.685,3120
8.844,-1.105,3120
8.846,-1.482,3120
8.848,-1.725,3120
8.850,-1.840,3120
8.852,-1.812,3126
8.854,-1.630,3126
8.856,-1.337,3126
8.858,-0.940,3126
8.860,-0.527,3126
8.862,-0.098,3126
8.864,0.338,3126
8.866,0.703,3126
8.868,0.950,3126
8.870,1.067,3126
8.872,1.035,3136
8.874,0.868,3136
8.876,0.573,3136
8.878,0.193,3136
8.880,-0.723,3136
8.882,-1.093,3136
8.884,-1.462,3136
8.886,-1.698,3136
8.888,-1.820,3136
8.890,-1.802,3136
8.892,-1.633,3136
8.894,-1.343,3136
8.896,-0.968,3136
8.898,-0.542,3136
8.900,-0.107,3136
8.902,0.315,3136
8.904,0.688,3136
8.906,0.927,3136
8.908,1.048,3136
8.910,1.028,3120
8.912,0.858,3120
8.914,0.555,3120
8.916,0.185,3120
8.918,-0.230,3120
8.920,-1.147,3120
8.922,-1.448,3120
8.924,-1.690,3120
8.926,-1.808,3120
8.928,-1.782,3138
8.930,-1.617,3138
8.932,-1.330,3138
8.934,-0.940,3138
8.936,-0.530,3138
8.938,-0.092,3138
8.940,0.333,3138
8.942,0.698,3138
8.944,0.940,3138
8.946,1.065,3138
8.948,1.058,3120
8.950,0.875,3120
8.952,0.588,3120
8.954,0.215,3120
8.956,-0.212,3120
8.958,-0.650,3120
8.960,-1.502,3120
8.962,-1.698,3120
8.964,-1.823,3120
8.966,-1.808,3136
8.968,-1.633,3136
8.970,-1.345,3136
8.972,-0.965,3136
8.974,-0.545,3136
8.976,-0.107,3136
8.978,0.318,3136
8.980,0.700,3136
8.982,0.950,3136
8.984,1.087,3136
8.986,1.070,3098
8.988,0.900,3098
8.990,0.613,3098
8.992,0.237,3098
8.994,-0.177,3098
8.996,-0.608,3098
8.998,-1.045,3098
9.000,-1.698,3098
9.002,-1.792,3098
9.004,-1.768,3135
9.006,-1.298,3135
9.008,-0.830,3135
9.010,-0.463,3135
9.012,-0.062,3135
9.014,0.375,3135
9.016,0.738,3135
9.018,0.988,3135
9.020,1.103,3135
9.022,1.087,3158
9.024,0.905,3158
9.026,0.610,3158
9.028,0.233,3158
9.030,-0.188,3158
9.032,-0.647,3158
9.034,-1.060,3158
9.036,-1.455,3158
9.038,-1.710,3158
9.040,-1.788,3079
9.042,-1.373,3079
9.044,-0.990,3079
9.046,-0.575,3079
9.048,-0.133,3079
9.050,0.297,3079
9.052,0.672,3079
9.054,0.932,3079
9.056,1.067,3079
9.058,1.058,3129
9.060,0.890,3129
9.062,0.565,3129
9.064,0.212,3129
9.066,-0.210,3129
9.068,-0.650,3129
9.070,-1.073,3129
9.072,-1.462,3129
9.074,-1.732,3129
9.076,-1.857,3129
9.078,-1.853,3080
9.080,-1.337,3080
9.082,-1.015,3080
9.084,-0.603,3080
9.086,-0.163,3080
9.088,0.273,3080
9.090,0.662,3080
9.092,0.927,3080
9.094,1.067,3080
9.096,1.062,3080
9.098,0.907,3104
9.100,0.618,3104
9.102,0.258,3104
9.104,-0.168,3104
9.106,-0.593,3104
9.108,-1.030,3104
9.110,-1.410,3104
9.112,-1.670,3104
9.114,-1.808,3104
9.116,-1.790,3104
9.118,-1.633,3120
9.120,-0.873,3120
9.122,-0.552,3120
9.124,-0.107,3120
9.126,0.338,3120
9.128,0.677,3120
9.130,0.938,3120
9.132,1.070,3120
9.134,1.058,3120
9.136,0.892,3126
9.138,0.593,3126
9.140,0.223,3126
9.142,-0.193,3126
9.144,-0.642,3126
9.146,-1.067,3126
9.148,-1.455,3126
9.150,-1.702,3126
9.152,-1.833,3126
9.154,-1.823,3126
9.156,-1.663,3109
9.158,-1.370,3109
9.160,-0.520,3109
9.162,-0.160,3109
9.164,0.273,3109
9.166,0.662,3109
9.168,0.917,3109
9.170,1.058,3109
9.172,1.050,3109
9.174,0.895,3103
9.176,0.598,3103
9.178,0.230,3103
9.180,-0.182,3103
9.182,-0.618,3103
9.184,-1.048,3103
9.186,-1.420,3103
9.188,-1.688,3103
9.190,-1.810,3103
9.192,-1.790,3103
9.194,-1.643,3101
9.196,-1.345,3101
9.198,-0.983,3101
9.200,-0.062,3101
9.202,0.305,3101
9.204,0.688,3101
9.206,0.943,3101
9.208,1.077,3101
9.210,1.067,3101
9.212,0.902,3102
9.214,0.608,3102
9.216,0.237,3102
9.218,-0.177,3102
9.220,-0.613,3102
9.222,-1.048,3102
9.224,-1.417,3102
9.226,-1.673,3102
9.228,-1.812,3102
9.230,-1.810,3102
9.232,-1.643,3124
9.234,-1.347,3124
9.236,-0.980,3124
9.238,-0.568,3124
9.240,0.375,3124
9.242,0.958,3124
9.244,1.073,3124
9.246,1.038,3124
9.248,0.897,3132
9.250,0.613,3132
9.252,0.228,3132
9.254,-0.185,3132
9.256,-0.647,3132
9.258,-1.058,3132
9.260,-1.442,3132
9.262,-1.692,3132
9.264,-1.823,3132
9.266,-1.817,3132
9.268,-1.655,3116
9.270,-1.373,3116
9.272,-0.988,3116
9.274,-0.575,3116
9.276,-0.140,3116
9.278,0.290,3116
9.280,0.960,3116
9.282,1.062,3116
9.284,1.060,3116
9.286,0.897,3113
9.288,0.598,3113
9.290,0.220,3113
9.292,-0.193,3113
9.294,-0.650,3113
9.296,-1.073,3113
9.298,-1.460,3113
9.300,-1.712,3113
9.302,-1.843,3113
9.304,-1.823,3113
9.306,-1.660,3124
9.308,-1.365,3124
9.310,-0.985,3124
9.312,-0.573,3124
9.314,-0.133,3124
9.316,0.307,3124
9.318,0.700,3124
9.320,1.103,3124
9.322,0.907,3134
9.324,0.632,3134
9.326,0.268,3134
9.328,-0.147,3134
9.330,-0.580,3134
9.332,-1.015,3134
9.334,-1.390,3134
9.336,-1.655,3134
9.338,-1.785,3134
9.340,-1.792,3134
9.342,-1.643,3118
9.344,-1.353,3118
9.346,-0.983,3118
9.348,-0.578,3118
9.350,-0.147,3118
9.352,0.287,3118
9.354,0.667,3118
9.356,0.932,3118
9.358,1.067,3118
9.360,0.868,3140
9.362,0.237,3140
9.364,-0.175,3140
9.366,-0.610,3140
9.368,-1.048,3140
9.370,-1.440,3140
9.372,-1.698,3140
9.374,-1.827,3140
9.376,-1.825,3140
9.378,-1.683,3114
9.380,-1.397,3114
9.382,-1.030,3114
9.384,-0.615,3114
9.386,-0.180,3114
9.388,0.265,3114
9.390,0.652,3114
9.392,0.932,3114
9.394,1.073,3114
9.396,1.077,3114
9.398,0.930,3143
9.400,0.210,3143
9.402,-0.142,3143
9.404,-0.583,3143
9.406,-1.018,3143
9.408,-1.397,3143
9.410,-1.667,3143
9.412,-1.808,3143
9.414,-1.808,3143
9.416,-1.657,3148
9.418,-1.380,3148
9.420,-1.020,3148
9.422,-0.608,3148
9.424,-0.177,3148
9.426,0.255,3148
9.428,0.635,3148
9.430,0.907,3148
9.432,1.058,3148
9.434,1.062,3148
9.436,0.912,3138
9.438,0.618,3138
9.440,-0.220,3138
9.442,-0.583,3138
9.444,-1.012,3138
9.446,-1.413,3138
9.448,-1.657,3138
9.450,-1.792,3138
9.452,-1.790,3138
9.454,-1.633,3138
9.456,-1.355,3138
9.458,-0.978,3138
9.460,-0.583,3138
9.462,-0.147,3138
9.464,0.287,3138
9.466,0.667,3138
9.468,0.932,3138
9.470,1.070,3138
9.472,1.073,3138
9.474,0.907,3131
9.476,0.613,3131
9.478,0.253,3131
9.480,-0.700,3131
9.482,-1.062,3131
9.484,-1.452,3131
9.486,-1.712,3131
9.488,-1.853,3131
9.490,-1.843,3131
9.492,-1.688,3124
9.494,-1.393,3124
9.496,-1.018,3124
9.498,-0.593,3124
9.500,-0.163,3124
9.502,0.278,3124
9.504,0.667,3124
9.506,0.938,3124
9.508,1.062,3124
9.510,1.067,3124
9.512,0.907,3129
9.514,0.613,3129
9.516,0.247,3129
9.518,-0.175,3129
9.520,-1.103,3129
9.522,-1.415,3129
9.524,-1.688,3129
9.526,-1.817,3129
9.528,-1.805,3129
9.530,-1.653,3121
9.532,-1.367,3121
9.534,-0.993,3121
9.536,-0.580,3121
9.538,-0.142,3121
9.540,0.287,3121
9.542,0.672,3121
9.544,0.948,3121
9.546,1.090,3121
9.548,1.095,3121
9.550,0.940,3138
9.552,0.652,3138
9.554,0.270,3138
9.556,-0.163,3138
9.558,-0.588,3138
9.560,-1.472,3138
9.562,-1.690,3138
9.564,-1.823,3138
9.566,-1.817,3138
9.568,-1.663,3126
9.570,-1.375,3126
9.572,-1.002,3126
9.574,-0.583,3126
9.576,-0.168,3126
9.578,0.270,3126
9.580,0.657,3126
9.582,0.927,3126
9.584,1.060,3126
9.586,1.065,3126
9.588,0.912,3126
9.590,0.623,3110
9.592,0.250,3110
9.594,-0.168,3110
9.596,-0.608,3110
9.598,-1.032,3110
9.600,-1.732,3110
9.602,-1.845,3110
9.604,-1.850,3110
9.606,-1.698,3110
9.608,-1.423,3118
9.610,-1.042,3118
9.612,-0.623,3118
9.614,-0.185,3118
9.616,0.258,3118
9.618,0.637,3118
9.620,0.927,3118
9.622,1.067,3118
9.624,1.073,3118
9.626,0.917,3118
9.628,0.627,3118
9.630,0.250,3118
9.632,-0.168,3118
9.634,-0.605,3118
9.636,-1.048,3118
9.638,-1.442,3118
9.640,-1.857,3118
9.642,-1.833,3118
9.644,-1.690,3118
9.646,-1.405,3110
9.648,-1.022,3110
9.650,-0.608,3110
9.652,-0.177,3110
9.654,0.713,3110
9.656,0.932,3110
9.658,1.077,3110
9.660,1.087,3110
9.662,0.940,3110
9.664,0.660,3101
9.666,0.275,3101
9.668,-0.142,3101
9.670,-0.578,3101
9.672,-1.015,3101
9.674,-1.393,3101
9.676,-1.673,3101
9.678,-1.815,3101
9.680,-1.627,3101
9.682,-0.980,3101
9.684,-0.603,3101
9.686,-0.177,3101
9.688,0.260,3101
9.690,0.637,3101
9.692,0.927,3101
9.694,1.067,3101
9.696,1.073,3101
9.698,0.912,3101
9.700,0.652,3144
9.702,0.270,3144
9.704,-0.133,3144
9.706,-0.570,3144
9.708,-0.993,3144
9.710,-1.383,3144
9.712,-1.663,3144
9.714,-1.817,3144
9.716,-1.823,3144
9.718,-1.683,3144
9.720,-0.973,3116
9.722,-0.163,3116
9.724,0.268,3116
9.726,0.618,3116
9.728,0.897,3116
9.730,1.048,3116
9.732,1.058,3116
9.734,0.917,3116
9.736,0.637,3119
9.738,0.268,3119
9.740,-0.140,3119
9.742,-0.578,3119
9.744,-1.012,3119
9.746,-1.390,3119
9.748,-1.667,3119
9.750,-1.810,3119
9.752,-1.815,3119
9.754,-1.667,3119
9.756,-1.403,3116
9.758,-1.022,3116
9.760,-0.122,3116
9.762,0.228,3116
9.764,0.610,3116
9.766,0.885,3116
9.768,1.028,3116
9.770,1.048,3116
9.772,0.902,3116
9.774,0.623,3119
9.776,0.247,3119
9.778,-0.170,3119
9.780,-0.595,3119
9.782,-1.048,3119
9.784,-1.427,3119
9.786,-1.702,3119
9.788,-1.847,3119
9.790,-1.853,3119
9.792,-1.702,3119
9.794,-1.413,3097
9.796,-1.028,3097
9.798,-0.613,3097
9.800,0.318,3097
9.802,0.672,3097
9.804,0.915,3097
9.806,1.073,3097
9.808,1.077,3097
9.810,0.938,3097
9.812,0.667,3128
9.814,0.290,3128
9.816,-0.122,3128
9.818,-0.562,3128
9.820,-0.995,3128
9.822,-1.387,3128
9.824,-1.673,3128
9.826,-1.820,3128
9.828,-1.830,3128
9.830,-1.690,3128
9.832,-1.390,3124
9.834,-1.042,3124
9.836,-0.618,3124
9.838,-0.200,3124
9.840,0.688,3124
9.842,0.910,3124
9.844,1.050,3124
9.846,1.062,3124
9.848,0.915,3124
9.850,0.635,3099
9.852,0.263,3099
9.854,-0.138,3099
9.856,-0.568,3099
9.858,-1.002,3099
9.860,-1.390,3099
9.862,-1.667,3099
9.864,-1.810,3099
9.866,-1.823,3099
9.868,-1.692,3099
9.870,-1.417,3126
9.872,-1.032,3126
9.874,-0.623,3126
9.876,-0.182,3126
9.878,0.255,3126
9.880,0.943,3126
9.882,1.055,3126
9.884,1.058,3126
9.886,0.902,3126
9.888,0.625,3126
9.890,0.253,3126
9.892,-0.163,3126
9.894,-0.590,3126
9.896,-1.028,3126
9.898,-1.413,3126
9.900,-1.690,3126
9.902,-1.825,3126
9.904,-1.830,3126
9.906,-1.673,3126
9.908,-1.393,3146
9.910,-1.008,3146
9.912,-0.583,3146
9.914,-0.145,3146
9.916,0.290,3146
9.918,0.677,3146
9.920,1.105,3146
9.922,1.090,3146
9.924,0.917,3146
9.926,0.637,3134
9.928,0.253,3134
9.930,-0.168,3134
9.932,-0.598,3134
9.934,-1.028,3134
9.936,-1.413,3134
9.938,-1.688,3134
9.940,-1.827,3134
9.942,-1.827,3134
9.944,-1.685,3134
9.946,-1.397,3129
9.948,-1.015,3129
9.950,-0.610,3129
9.952,-0.172,3129
9.954,0.260,3129
9.956,0.650,3129
9.958,0.910,3129
9.960,1.030,3129
9.962,0.875,3129
9.964,0.573,3126
9.966,-0.212,3126
9.968,-0.662,3126
9.970,-1.045,3126
9.972,-1.423,3126
9.974,-1.692,3126
9.976,-1.827,3126
9.978,-1.823,3126
9.980,-1.683,3126
9.982,-1.405,3116
9.984,-1.030,3116
9.986,-0.618,3116
9.988,-0.188,3116
9.990,0.247,3116
9.992,0.620,3116
9.994,0.900,3116
9.996,1.038,3116
9.998,1.050,3116
10.000,0.585,3129
10.002,-0.145,3129
10.004,-0.588,3129
10.006,-1.025,3129
10.008,-1.420,3129
10.010,-1.702,3129
10.012,-1.853,3129
10.014,-1.860,3129
10.016,-1.712,3129
10.018,-1.452,3134
10.020,-1.073,3134
10.022,-0.613,3134
10.024,-0.233,3134
10.026,0.198,3134
10.028,0.578,3134
10.030,0.858,3134
10.032,1.005,3134
10.034,0.950,3134
10.036,0.575,3128
10.038,0.253,3128
10.040,-0.647,3128
10.042,-1.000,3128
10.044,-1.377,3128
10.046,-1.663,3128
10.048,-1.812,3128
10.050,-1.823,3128
10.052,-1.685,3128
10.054,-1.417,3119
10.056,-1.055,3119
10.058,-0.657,3119
10.060,-0.228,3119
10.062,0.207,3119
10.064,0.580,3119
10.066,0.863,3119
10.068,1.015,3119
10.070,1.025,3119
10.072,0.887,3119
10.074,0.618,3131
10.076,0.247,3131
10.078,-0.163,3131
10.080,-1.087,3131
10.082,-1.458,3131
10.084,-1.673,3131
10.086,-1.808,3131
10.088,-1.805,3131
10.090,-1.645,3131
10.092,-1.373,3131
10.094,-1.002,3114
10.096,-0.590,3114
10.098,-0.172,3114
10.100,0.250,3114
10.102,0.620,3114
10.104,0.897,3114
10.106,1.028,3114
10.108,1.032,3114
10.110,0.892,3114
10.112,0.608,3114
10.114,0.228,3109
10.116,-0.193,3109
10.118,-0.642,3109
10.120,-1.502,3109
10.122,-1.712,3109
10.124,-1.850,3109
10.126,-1.845,3109
10.128,-1.685,3109
10.130,-1.410,3109
10.132,-1.022,3117
10.134,-0.603,3117
10.136,-0.188,3117
10.138,0.253,3117
10.140,0.627,3117
10.142,0.917,3117
10.144,1.067,3117
10.146,1.077,3117
10.148,0.950,3117
10.150,0.685,3117
10.152,0.302,3114
10.154,-0.107,3114
10.156,-0.537,3114
10.158,-0.975,3114
10.160,-1.683,3114
10.162,-1.812,3114
10.164,-1.827,3114
10.166,-1.698,3114
10.168,-1.442,3114
10.170,-1.070,3074
10.172,-0.665,3074
10.174,-0.247,3074
10.176,0.188,3074
10.178,0.573,3074
10.180,0.863,3074
10.182,1.015,3074
10.184,1.030,3074
10.186,0.892,3074
10.188,0.623,3074
10.190,0.255,3117
10.192,-0.168,3117
10.194,-0.583,3117
10.196,-1.018,3117
10.198,-1.413,3117
10.200,-1.827,3117
10.202,-1.857,3117
10.204,-1.708,3117
10.206,-1.458,3117
10.208,-1.083,3118
10.210,-0.670,3118
10.212,-0.242,3118
10.214,0.190,3118
10.216,0.588,3118
10.218,0.885,3118
10.220,1.028,3118
10.222,1.055,3118
10.224,0.917,3118
10.226,0.657,3118
10.228,0.287,3117
10.230,-0.115,3117
10.232,-0.547,3117
10.234,-0.978,3117
10.236,-1.367,3117
10.238,-1.655,3117
10.240,-1.817,3117
10.242,-1.700,3117
10.244,-1.442,3117
10.246,-1.070,3120
10.248,-0.667,3120
10.250,-0.253,3120
10.252,0.175,3120
10.254,0.552,3120
10.256,0.835,3120
10.258,0.993,3120
10.260,1.020,3120
10.262,0.897,3120
10.264,0.637,3120
10.266,0.297,3106
10.268,-0.102,3106
10.270,-0.522,3106
10.272,-0.945,3106
10.274,-1.337,3106
10.276,-1.633,3106
10.278,-1.800,3106
10.280,-1.683,3106
10.282,-1.427,3106
10.284,-1.073,3113
10.286,-0.693,3113
10.288,-0.263,3113
10.290,0.172,3113
10.292,0.560,3113
10.294,0.863,3113
10.296,1.022,3113
10.298,1.050,3113
10.300,0.910,3113
10.302,0.652,3113
10.304,0.292,3108
10.306,-0.122,3108
10.308,-0.537,3108
10.310,-0.963,3108
10.312,-1.337,3108
10.314,-1.623,3108
10.316,-1.780,3108
10.318,-1.808,3108
10.320,-1.365,3108
10.322,-1.058,3129
10.324,-0.660,3129
10.326,-0.240,3129
10.328,0.188,3129
10.330,0.565,3129
10.332,0.838,3129
10.334,0.995,3129
10.336,1.020,3129
10.338,0.905,3129
10.340,0.650,3129
10.342,0.290,3120
10.344,-0.122,3120
10.346,-0.542,3120
10.348,-0.978,3120
10.350,-1.373,3120
10.352,-1.657,3120
10.354,-1.812,3120
10.356,-1.823,3120
10.358,-1.692,3120
10.360,-1.002,3116
10.362,-0.233,3116
10.364,0.193,3116
10.366,0.580,3116
10.368,0.870,3116
10.370,1.028,3116
10.372,1.058,3116
10.374,0.917,3116
10.376,0.662,3116
10.378,0.297,3101
10.380,-0.110,3101
10.382,-0.542,3101
10.384,-0.973,3101
10.386,-1.363,3101
10.388,-1.653,3101
10.390,-1.808,3101
10.392,-1.823,3101
10.394,-1.692,3101
10.396,-1.427,3101
10.398,-1.067,3148
10.400,-0.177,3148
10.402,0.188,3148
10.404,0.573,3148
10.406,0.858,3148
10.408,1.018,3148
10.410,1.030,3148
10.412,0.907,3148
10.414,0.657,3148
10.416,0.300,3146
10.418,-0.113,3146
10.420,-0.542,3146
10.422,-0.968,3146
10.424,-1.353,3146
10.426,-1.647,3146
10.428,-1.808,3146
10.430,-1.843,3146
10.432,-1.708,3146
10.434,-1.452,3146
10.436,-1.093,3134
10.438,-0.667,3134
10.440,0.263,3134
10.442,0.583,3134
10.444,0.875,3134
10.446,1.038,3134
10.448,1.067,3134
10.450,0.938,3134
10.452,0.688,3134
10.454,0.343,3130
10.456,-0.072,3130
10.458,-0.500,3130
10.460,-0.925,3130
10.462,-1.327,3130
10.464,-1.615,3130
10.466,-1.772,3130
10.468,-1.792,3130
10.470,-1.670,3130
10.472,-1.423,3130
10.474,-1.062,3136
10.476,-0.662,3136
10.478,-0.245,3136
10.480,0.632,3136
10.482,0.873,3136
10.484,1.032,3136
10.486,1.067,3136
10.488,0.938,3136
10.490,0.693,3136
10.492,0.335,3130
10.494,-0.075,3130
10.496,-0.512,3130
10.498,-0.938,3130
10.500,-1.343,3130
10.502,-1.633,3130
10.504,-1.792,3130
10.506,-1.823,3130
10.508,-1.698,3130
10.510,-1.448,3130
10.512,-1.087,3125
10.514,-0.688,3125
10.516,-0.260,3125
10.518,0.158,3125
10.520,0.887,3125
10.522,1.015,3125
10.524,1.052,3125
10.526,0.927,3125
10.528,0.688,3125
10.530,0.338,3127
10.532,-0.087,3127
10.534,-0.507,3127
10.536,-0.932,3127
10.538,-1.337,3127
10.540,-1.633,3127
10.542,-1.802,3127
10.544,-1.823,3127
10.546,-1.700,3127
10.548,-1.450,3127
10.550,-1.083,3123
10.552,-0.685,3123
10.554,-0.258,3123
10.556,0.188,3123
10.558,0.578,3123
10.560,1.067,3123
10.562,1.093,3123
10.564,0.978,3123
10.566,0.718,3123
10.568,0.370,3114
10.570,-0.060,3114
10.572,-0.487,3114
10.574,-0.907,3114
10.576,-1.310,3114
10.578,-1.615,3114
10.580,-1.782,3114
10.582,-1.823,3114
10.584,-1.702,3114
10.586,-1.458,3114
10.588,-1.097,3114
10.590,-0.703,3087
10.592,-0.263,3087
10.594,0.170,3087
10.596,0.557,3087
10.598,0.858,3087
10.600,1.038,3087
10.602,0.662,3087
10.604,0.338,3087
10.606,-0.062,3118
10.608,-0.502,3118
10.610,-0.922,3118
10.612,-1.327,3118
10.614,-1.623,3118
10.616,-1.782,3118
10.618,-1.815,3118
10.620,-1.698,3118
10.622,-1.448,3118
10.624,-1.093,3118
10.626,-0.698,3111
10.628,-0.263,3111
10.630,0.172,3111
10.632,0.552,3111
10.634,0.853,3111
10.636,1.022,3111
10.638,1.062,3111
10.640,0.672,3111
10.642,0.347,3111
10.644,-0.058,3085
10.646,-0.492,3085
10.648,-0.907,3085
10.650,-1.310,3085
10.652,-1.613,3085
10.654,-1.782,3085
10.656,-1.817,3085
10.658,-1.702,3085
10.660,-1.458,3085
10.662,-1.097,3085
10.664,-0.693,3098
10.666,-0.263,3098
10.668,0.152,3098
10.670,0.550,3098
10.672,0.850,3098
10.674,1.018,3098
10.676,1.052,3098
10.678,0.938,3098
10.680,0.263,3085
10.682,-0.662,3085
10.684,-0.968,3085
10.686,-1.337,3085
10.688,-1.643,3085
10.690,-1.802,3085
10.692,-1.840,3085
10.694,-1.722,3085
10.696,-1.482,3085
10.698,-1.125,3085
10.700,-0.728,3149
10.702,-0.295,3149
10.704,0.138,3149
10.706,0.527,3149
10.708,0.830,3149
10.710,1.010,3149
10.712,1.032,3149
10.714,0.935,3149
10.716,0.690,3149
10.718,0.343,3149
10.720,-0.562,3067
10.722,-1.333,3067
10.724,-1.627,3067
10.726,-1.802,3067
10.728,-1.843,3067
10.730,-1.728,3067
10.732,-1.488,3067
10.734,-1.133,3067
10.736,-0.728,3124
10.738,-0.297,3124
10.740,0.130,3124
10.742,0.517,3124
10.744,0.823,3124
10.746,0.990,3124
10.748,1.030,3124
10.750,0.917,3124
10.752,0.675,3124
10.754,0.318,3124
10.756,-0.083,3104
10.758,-0.510,3104
10.760,-1.387,3104
10.762,-1.627,3104
10.764,-1.792,3104
10.766,-1.827,3104
10.768,-1.705,3104
10.770,-1.465,3104
10.772,-1.105,3104
10.774,-0.713,3095
10.776,-0.285,3095
10.778,0.138,3095
10.780,0.527,3095
10.782,0.828,3095
10.784,0.995,3095
10.786,1.030,3095
10.788,0.912,3095
10.790,0.672,3095
10.792,0.338,3095
10.794,-0.092,3127
10.796,-0.505,3127
10.798,-0.912,3127
10.800,-1.643,3127
10.802,-1.778,3127
10.804,-1.820,3127
10.806,-1.663,3127
10.808,-1.423,3127
10.810,-1.052,3127
10.812,-0.698,3134
10.814,-0.260,3134
10.816,0.158,3134
10.818,0.547,3134
10.820,0.853,3134
10.822,1.012,3134
10.824,1.052,3134
10.826,0.935,3134
10.828,0.698,3134
10.830,0.338,3134
10.832,-0.062,3114
10.834,-0.502,3114
10.836,-0.930,3114
10.838,-1.327,3114
10.840,-1.810,3114
10.842,-1.827,3114
10.844,-1.708,3114
10.846,-1.462,3114
10.848,-1.103,3114
10.850,-0.708,3091
10.852,-0.268,3091
10.854,0.145,3091
10.856,0.535,3091
10.858,0.833,3091
10.860,1.005,3091
10.862,1.050,3091
10.864,0.932,3091
10.866,0.695,3091
10.868,0.352,3091
10.870,-0.052,3148
10.872,-0.487,3148
10.874,-0.900,3148
10.876,-1.308,3148
10.878,-1.610,3148
10.880,-1.817,3148
10.882,-1.712,3148
10.884,-1.482,3148
10.886,-1.133,3148
10.888,-0.733,3144
10.890,-0.297,3144
10.892,0.125,3144
10.894,0.515,3144
10.896,0.818,3144
10.898,0.983,3144
10.900,1.025,3144
10.902,0.915,3144
10.904,0.677,3144
10.906,0.343,3144
10.908,-0.050,3146
10.910,-0.482,3146
10.912,-0.892,3146
10.914,-1.292,3146
10.916,-1.583,3146
10.918,-1.768,3146
10.920,-1.667,3146
10.922,-1.455,3146
10.924,-1.105,3146
10.926,-0.698,3139
10.928,-0.270,3139
10.930,0.152,3139
10.932,0.547,3139
10.934,0.845,3139
10.936,1.015,3139
10.938,1.052,3139
10.940,0.940,3139
10.942,0.700,3139
10.944,0.357,3139
10.946,-0.043,3114
10.948,-0.465,3114
10.950,-0.885,3114
10.952,-1.265,3114
10.954,-1.573,3114
10.956,-1.742,3114
10.958,-1.802,3114
10.960,-1.407,3114
10.962,-1.107,3114
10.964,-0.713,3142
10.966,-0.290,3142
10.968,0.135,3142
10.970,0.527,3142
10.972,0.823,3142
10.974,0.998,3142
10.976,1.038,3142
10.978,0.938,3142
10.980,0.698,3142
10.982,0.367,3142
10.984,-0.030,3118
10.986,-0.460,3118
10.988,-0.945,3118
10.990,-1.292,3118
10.992,-1.583,3118
10.994,-1.768,3118
10.996,-1.812,3118
10.998,-1.700,3118
11.000,-1.048,3118
11.002,-0.700,3126
11.004,-0.273,3126
11.006,0.150,3126
11.008,0.552,3126
11.010,0.860,3126
11.012,1.030,3126
11.014,1.077,3126
11.016,0.975,3126
11.018,0.718,3126
11.020,0.380,3126
11.022,-0.022,3129
11.024,-0.448,3129
11.026,-0.865,3129
11.028,-1.258,3129
11.030,-1.570,3129
11.032,-1.745,3129
11.034,-1.802,3129
11.036,-1.698,3129
11.038,-1.460,3129
11.040,-0.647,3118
11.042,0.152,3118
11.044,0.532,3118
11.046,0.833,3118
11.048,1.002,3118
11.050,1.050,3118
11.052,0.943,3118
11.054,0.708,3118
11.056,0.372,3118
11.058,-0.033,3124
11.060,-0.465,3124
11.062,-0.895,3124
11.064,-1.292,3124
11.066,-1.587,3124
11.068,-1.778,3124
11.070,-1.823,3124
11.072,-1.712,3124
11.074,-1.485,3124
11.076,-1.137,3124
11.078,-0.733,3124
11.080,0.188,3110
11.082,0.818,3110
11.084,0.998,3110
11.086,1.048,3110
11.088,0.940,3110
11.090,0.715,3110
11.092,0.372,3110
11.094,-0.028,3110
11.096,-0.455,3131
11.098,-0.902,3131
11.100,-1.302,3131
11.102,-1.607,3131
11.104,-1.778,3131
11.106,-1.812,3131
11.108,-1.708,3131
11.110,-1.472,3131
11.112,-1.123,3131
11.114,-0.723,3131
11.116,-0.297,3107
11.118,0.135,3107
11.120,0.863,3107
11.122,1.008,3107
11.124,1.048,3107
11.126,0.932,3107
11.128,0.693,3107
11.130,0.352,3107
11.132,-0.058,3107
11.134,-0.468,3104
11.136,-0.905,3104
11.138,-1.302,3104
11.140,-1.607,3104
11.142,-1.780,3104
11.144,-1.823,3104
11.146,-1.718,3104
11.148,-1.482,3104
11.150,-1.127,3104
11.152,-0.733,3104
11.154,-0.310,3098
11.156,0.135,3098
11.158,0.515,3098
11.160,1.018,3098
11.162,1.022,3098
11.164,0.902,3098
11.166,0.657,3098
11.168,0.340,3098
11.170,-0.062,3098
11.172,-0.487,3104
11.174,-0.907,3104
11.176,-1.312,3104
11.178,-1.613,3104
11.180,-1.788,3104
11.182,-1.830,3104
11.184,-1.722,3104
11.186,-1.482,3104
11.188,-1.133,3104
11.190,-0.733,3104
11.192,-0.300,3109
11.194,0.130,3109
11.196,0.530,3109
11.198,0.833,3109
11.200,1.052,3109
11.202,0.948,3109
11.204,0.708,3109
11.206,0.367,3109
11.208,-0.043,3109
11.210,-0.458,3104
11.212,-0.892,3104
11.214,-1.295,3104
11.216,-1.607,3104
11.218,-1.780,3104
11.220,-1.833,3104
11.222,-1.735,3104
11.224,-1.502,3104
11.226,-1.163,3104
11.228,-0.762,3104
11.230,-0.352,3116
11.232,0.090,3116
11.234,0.472,3116
11.236,0.782,3116
11.238,0.958,3116
11.240,0.895,3116
11.242,0.695,3116
11.244,0.347,3116
11.246,-0.050,3116
11.248,-0.465,3107
11.250,-0.905,3107
11.252,-1.300,3107
11.254,-1.610,3107
11.256,-1.782,3107
11.258,-1.827,3107
11.260,-1.712,3107
11.262,-1.492,3107
11.264,-1.140,3107
11.266,-0.740,3107
11.268,-0.333,3124
11.270,0.117,3124
11.272,0.517,3124
11.274,0.833,3124
11.276,1.020,3124
11.278,1.073,3124
11.280,0.703,3124
11.282,0.410,3124
11.284,0.013,3124
11.286,-0.422,3114
11.288,-0.868,3114
11.290,-1.258,3114
11.292,-1.575,3114
11.294,-1.768,3114
11.296,-1.817,3114
11.298,-1.710,3114
11.300,-1.482,3114
11.302,-1.135,3114
11.304,-0.733,3114
11.306,-0.302,3131
11.308,0.135,3131
11.310,0.535,3131
11.312,0.850,3131
11.314,1.032,3131
11.316,1.077,3131
11.318,0.988,3131
11.320,0.340,3131
11.322,-0.007,3131
11.324,-0.427,3125
11.326,-0.863,3125
11.328,-1.250,3125
11.330,-1.570,3125
11.332,-1.762,3125
11.334,-1.812,3125
11.336,-1.708,3125
11.338,-1.490,3125
11.340,-1.147,3125
11.342,-0.752,3125
11.344,-0.343,3148
11.346,0.098,3148
11.348,0.495,3148
11.350,0.795,3148
11.352,0.995,3148
11.354,1.038,3148
11.356,0.938,3148
11.358,0.705,3148
11.360,-0.092,3148
11.362,-0.485,3130
11.364,-1.312,3130
11.366,-1.583,3130
11.368,-1.772,3130
11.370,-1.823,3130
11.372,-1.712,3130
11.374,-1.495,3130
11.376,-1.163,3130
11.378,-0.762,3130
11.380,-0.343,3116
11.382,0.115,3116
11.384,0.502,3116
11.386,0.812,3116
11.388,1.005,3116
11.390,1.058,3116
11.392,0.958,3116
11.394,0.738,3116
11.396,0.383,3116
11.398,-0.020,3116
11.400,-0.940,3136
11.402,-1.580,3136
11.404,-1.762,3136
11.406,-1.808,3136
11.408,-1.698,3136
11.410,-1.458,3136
11.412,-1.103,3136
11.414,-0.703,3136
11.416,-0.282,3129
11.418,0.147,3129
11.420,0.540,3129
11.422,0.855,3129
11.424,1.035,3129
11.426,1.087,3129
11.428,0.990,3129
11.430,0.743,3129
11.432,0.410,3129
11.434,0.018,3129
11.436,-0.417,3123
11.438,-0.858,3123
11.440,-1.607,3123
11.442,-1.748,3123
11.444,-1.817,3123
11.446,-1.728,3123
11.448,-1.512,3123
11.450,-1.177,3123
11.452,-0.782,3123
11.454,-0.380,3128
11.456,0.052,3128
11.458,0.450,3128
11.460,0.760,3128
11.462,0.955,3128
11.464,1.030,3128
11.466,0.940,3128
11.468,0.718,3128
11.470,0.393,3128
11.472,-0.007,3128
11.474,-0.427,3138
11.476,-0.863,3138
11.478,-1.258,3138
11.480,-1.788,3138
11.482,-1.830,3138
11.484,-1.732,3138
11.486,-1.502,3138
11.488,-1.147,3138
11.490,-0.748,3138
11.492,-0.328,3128
11.494,0.107,3128
11.496,0.507,3128
11.498,0.820,3128
11.500,1.010,3128
11.502,1.067,3128
11.504,0.978,3128
11.506,0.748,3128
11.508,0.412,3128
11.510,0.022,3128
11.512,-0.420,3130
11.514,-0.868,3130
11.516,-1.260,3130
11.518,-1.583,3130
