Czas(s),EKG_Surowe(mV),PPG_Surowe(ADC)
0.000,0.868,3108
0.001,-0.072,3108
0.002,-0.588,3108
0.003,-1.145,3108
0.004,-1.650,3108
0.005,-2.013,3108
0.006,-2.190,3108
0.007,-2.197,3108
0.008,-2.013,3108
0.009,-1.663,3097
0.010,-1.183,3097
0.011,-0.672,3097
0.012,-0.142,3097
0.013,0.398,3097
0.014,0.892,3097
0.015,1.255,3097
0.016,1.452,3097
0.017,1.462,3097
0.018,1.275,3097
0.019,0.932,3110
0.020,-0.177,3110
0.021,-0.578,3110
0.022,-1.113,3110
0.023,-1.613,3110
0.024,-1.978,3110
0.025,-2.147,3110
0.026,-2.163,3110
0.027,-1.978,3110
0.028,-1.607,3119
0.029,-1.147,3119
0.030,-0.652,3119
0.031,-0.122,3119
0.032,0.422,3119
0.033,0.917,3119
0.034,1.353,3119
0.035,1.460,3119
0.036,1.468,3119
0.037,1.272,3119
0.038,0.938,3119
0.039,0.468,3087
0.040,-0.688,3087
0.041,-1.228,3087
0.042,-1.630,3087
0.043,-1.992,3087
0.044,-2.178,3087
0.045,-2.188,3087
0.046,-2.005,3087
0.047,-1.660,3087
0.048,-1.198,3118
0.049,-0.670,3118
0.050,-0.147,3118
0.051,0.398,3118
0.052,0.902,3118
0.053,1.262,3118
0.054,1.452,3118
0.055,1.458,3118
0.056,1.258,3118
0.057,0.907,3118
0.058,0.438,3115
0.059,-0.083,3115
0.060,-1.248,3115
0.061,-1.673,3115
0.062,-2.013,3115
0.063,-2.188,3115
0.064,-2.203,3115
0.065,-2.010,3115
0.066,-1.673,3115
0.067,-1.210,3123
0.068,-0.682,3123
0.069,-0.163,3123
0.070,0.385,3123
0.071,0.890,3123
0.072,1.252,3123
0.073,1.448,3123
0.074,1.455,3123
0.075,1.258,3123
0.076,0.905,3123
0.077,0.450,3112
0.078,-0.085,3112
0.079,-0.608,3112
0.080,-1.725,3112
0.081,-2.013,3112
0.082,-2.183,3112
0.083,-2.188,3112
0.084,-2.002,3112
0.085,-1.657,3112
0.086,-1.188,3103
0.087,-0.662,3103
0.088,-0.128,3103
0.089,0.432,3103
0.090,0.938,3103
0.091,1.312,3103
0.092,1.498,3103
0.093,1.502,3103
0.094,1.310,3103
0.095,0.943,3103
0.096,0.477,3104
0.097,-0.060,3104
0.098,-0.583,3104
0.099,-1.133,3104
0.100,-2.035,3104
0.101,-2.178,3104
0.102,-2.183,3104
0.103,-2.007,3104
0.104,-1.663,3104
0.105,-1.202,3108
0.106,-0.685,3108
0.107,-0.163,3108
0.108,0.390,3108
0.109,0.877,3108
0.110,1.248,3108
0.111,1.427,3108
0.112,1.430,3108
0.113,1.240,3108
0.114,0.902,3108
0.115,0.438,3108
0.116,-0.087,3108
0.117,-0.593,3108
0.118,-1.153,3108
0.119,-1.650,3108
0.120,-2.215,3108
0.121,-2.167,3108
0.122,-1.982,3108
0.123,-1.653,3108
0.124,-1.173,3122
0.125,-0.593,3122
0.126,-0.098,3122
0.127,0.422,3122
0.128,0.907,3122
0.129,1.265,3122
0.130,1.458,3122
0.131,1.458,3122
0.132,1.258,3122
0.133,0.917,3122
0.134,0.455,3122
0.135,-0.060,3122
0.136,-0.608,3122
0.137,-1.153,3122
0.138,-1.660,3122
0.139,-2.022,3122
0.140,-2.212,3122
0.141,-2.033,3122
0.142,-1.710,3122
0.143,-1.250,3108
0.144,-0.723,3108
0.145,-0.177,3108
0.146,0.372,3108
0.147,0.873,3108
0.148,1.238,3108
0.149,1.433,3108
0.150,1.458,3108
0.151,1.260,3108
0.152,0.917,3108
0.153,0.458,3134
0.154,-0.062,3134
0.155,-0.608,3134
0.156,-1.150,3134
0.157,-1.660,3134
0.158,-2.018,3134
0.159,-2.188,3134
0.160,-1.968,3134
0.161,-1.643,3134
0.162,-1.188,3092
0.163,-0.662,3092
0.164,-0.122,3092
0.165,0.417,3092
0.166,0.912,3092
0.167,1.275,3092
0.168,1.472,3092
0.169,1.488,3092
0.170,1.298,3092
0.171,0.935,3092
0.172,0.463,3121
0.173,-0.058,3121
0.174,-0.603,3121
0.175,-1.147,3121
0.176,-1.655,3121
0.177,-2.018,3121
0.178,-2.203,3121
0.179,-2.210,3121
0.180,-1.633,3121
0.181,-1.228,3132
0.182,-0.713,3132
0.183,-0.182,3132
0.184,0.378,3132
0.185,0.887,3132
0.186,1.248,3132
0.187,1.455,3132
0.188,1.472,3132
0.189,1.302,3132
0.190,0.948,3132
0.191,0.502,3102
0.192,-0.040,3102
0.193,-0.568,3102
0.194,-1.127,3102
0.195,-1.645,3102
0.196,-2.013,3102
0.197,-2.188,3102
0.198,-2.215,3102
0.199,-2.027,3102
0.200,-1.150,3145
0.201,-0.147,3145
0.202,0.370,3145
0.203,0.868,3145
0.204,1.248,3145
0.205,1.450,3145
0.206,1.465,3145
0.207,1.270,3145
0.208,0.932,3145
0.209,0.463,3117
0.210,-0.068,3117
0.211,-0.603,3117
0.212,-1.153,3117
0.213,-1.653,3117
0.214,-2.013,3117
0.215,-2.192,3117
0.216,-2.203,3117
0.217,-2.018,3117
0.218,-1.683,3117
0.219,-1.202,3115
0.220,-0.040,3115
0.221,0.398,3115
0.222,0.917,3115
0.223,1.292,3115
0.224,1.472,3115
0.225,1.498,3115
0.226,1.308,3115
0.227,0.953,3115
0.228,0.472,3137
0.229,-0.048,3137
0.230,-0.568,3137
0.231,-1.125,3137
0.232,-1.627,3137
0.233,-1.982,3137
0.234,-2.167,3137
0.235,-2.180,3137
0.236,-1.990,3137
0.237,-1.650,3137
0.238,-1.177,3134
0.239,-0.660,3134
0.240,0.507,3134
0.241,0.912,3134
0.242,1.272,3134
0.243,1.468,3134
0.244,1.472,3134
0.245,1.272,3134
0.246,0.932,3134
0.247,0.465,3140
0.248,-0.062,3140
0.249,-0.590,3140
0.250,-1.150,3140
0.251,-1.655,3140
0.252,-2.022,3140
0.253,-2.197,3140
0.254,-2.212,3140
0.255,-2.027,3140
0.256,-1.683,3140
0.257,-1.202,3137
0.258,-0.682,3137
0.259,-0.163,3137
0.260,0.958,3137
0.261,1.260,3137
0.262,1.438,3137
0.263,1.438,3137
0.264,1.250,3137
0.265,0.902,3137
0.266,0.432,3128
0.267,-0.098,3128
0.268,-0.647,3128
0.269,-1.177,3128
0.270,-1.675,3128
0.271,-2.033,3128
0.272,-2.210,3128
0.273,-2.212,3128
0.274,-2.022,3128
0.275,-1.667,3128
0.276,-1.192,3131
0.277,-0.685,3131
0.278,-0.138,3131
0.279,0.410,3131
0.280,1.327,3131
0.281,1.472,3131
0.282,1.298,3131
0.283,0.950,3131
0.284,0.497,3133
0.285,-0.043,3133
0.286,-0.573,3133
0.287,-1.107,3133
0.288,-1.613,3133
0.289,-1.965,3133
0.290,-2.140,3133
0.291,-2.145,3133
0.292,-1.968,3133
0.293,-1.627,3133
0.294,-1.167,3133
0.295,-0.667,3120
0.296,-0.138,3120
0.297,0.407,3120
0.298,0.890,3120
0.299,1.248,3120
0.300,1.423,3120
0.301,1.250,3120
0.302,0.900,3120
0.303,0.438,3120
0.304,-0.087,3116
0.305,-0.642,3116
0.306,-1.177,3116
0.307,-1.685,3116
0.308,-2.033,3116
0.309,-2.210,3116
0.310,-2.208,3116
0.311,-2.027,3116
0.312,-1.670,3116
0.313,-1.202,3116
0.314,-0.690,3109
0.315,-0.128,3109
0.316,0.420,3109
0.317,0.912,3109
0.318,1.272,3109
0.319,1.468,3109
0.320,1.208,3109
0.321,0.897,3109
0.322,0.438,3109
0.323,-0.072,3112
0.324,-0.657,3112
0.325,-1.173,3112
0.326,-1.683,3112
0.327,-2.033,3112
0.328,-2.210,3112
0.329,-2.212,3112
0.330,-2.022,3112
0.331,-1.670,3112
0.332,-1.188,3112
0.333,-0.672,3104
0.334,-0.130,3104
0.335,0.422,3104
0.336,0.917,3104
0.337,1.302,3104
0.338,1.485,3104
0.339,1.488,3104
0.340,0.887,3104
0.341,0.477,3104
0.342,-0.040,3116
0.343,-0.588,3116
0.344,-1.143,3116
0.345,-1.657,3116
0.346,-2.020,3116
0.347,-2.192,3116
0.348,-2.210,3116
0.349,-2.022,3116
0.350,-1.692,3116
0.351,-1.218,3116
0.352,-0.703,3099
0.353,-0.168,3099
0.354,0.378,3099
0.355,0.873,3099
0.356,1.238,3099
0.357,1.438,3099
0.358,1.458,3099
0.359,1.268,3099
0.360,0.370,3129
0.361,-0.650,3129
0.362,-1.177,3129
0.363,-1.673,3129
0.364,-2.033,3129
0.365,-2.220,3129
0.366,-2.228,3129
0.367,-1.990,3129
0.368,-1.702,3129
0.369,-1.230,3129
0.370,-0.723,3134
0.371,-0.172,3134
0.372,0.383,3134
0.373,0.887,3134
0.374,1.238,3134
0.375,1.427,3134
0.376,1.435,3134
0.377,1.252,3134
0.378,0.907,3134
0.379,0.453,3134
0.380,-0.682,3131
0.381,-1.633,3131
0.382,-1.985,3131
0.383,-2.163,3131
0.384,-2.167,3131
0.385,-1.985,3131
0.386,-1.650,3131
0.387,-1.180,3131
0.388,-0.667,3110
0.389,-0.133,3110
0.390,0.412,3110
0.391,0.905,3110
0.392,1.262,3110
0.393,1.462,3110
0.394,1.468,3110
0.395,1.268,3110
0.396,0.912,3110
0.397,0.448,3110
0.398,-0.070,3119
0.399,-0.623,3119
0.400,-1.762,3119
0.401,-2.042,3119
0.402,-2.217,3119
0.403,-2.243,3119
0.404,-2.047,3119
0.405,-1.700,3119
0.406,-1.222,3119
0.407,-0.703,3128
0.408,-0.142,3128
0.409,0.407,3128
0.410,0.912,3128
0.411,1.298,3128
0.412,1.482,3128
0.413,1.498,3128
0.414,1.323,3128
0.415,0.938,3128
0.416,0.502,3128
0.417,-0.025,3128
0.418,-0.585,3128
0.419,-1.137,3128
0.420,-2.042,3128
0.421,-2.172,3128
0.422,-2.180,3128
0.423,-1.992,3128
0.424,-1.653,3128
0.425,-1.185,3128
0.426,-0.665,3106
0.427,-0.125,3106
0.428,0.415,3106
0.429,0.907,3106
0.430,1.262,3106
0.431,1.458,3106
0.432,1.460,3106
0.433,1.258,3106
0.434,0.897,3106
0.435,0.432,3106
0.436,-0.085,3140
0.437,-0.640,3140
0.438,-1.170,3140
0.439,-1.667,3140
0.440,-2.203,3140
0.441,-2.205,3140
0.442,-2.022,3140
0.443,-1.685,3140
0.444,-1.208,3140
0.445,-0.693,3135
0.446,-0.138,3135
0.447,0.405,3135
0.448,0.902,3135
0.449,1.268,3135
0.450,1.460,3135
0.451,1.468,3135
0.452,1.270,3135
0.453,0.912,3135
0.454,0.453,3135
0.455,-0.068,3146
0.456,-0.618,3146
0.457,-1.173,3146
0.458,-1.688,3146
0.459,-2.047,3146
0.460,-2.223,3146
0.461,-2.042,3146
0.462,-1.702,3146
0.463,-1.218,3146
0.464,-0.700,3139
0.465,-0.150,3139
0.466,0.390,3139
0.467,0.887,3139
0.468,1.238,3139
0.469,1.433,3139
0.470,1.450,3139
0.471,1.255,3139
0.472,0.917,3139
0.473,0.455,3139
0.474,-0.050,3122
0.475,-0.605,3122
0.476,-1.140,3122
0.477,-1.643,3122
0.478,-1.995,3122
0.479,-2.178,3122
0.480,-1.962,3122
0.481,-1.663,3122
0.482,-1.183,3122
0.483,-0.660,3116
0.484,-0.122,3116
0.485,0.417,3116
0.486,0.917,3116
0.487,1.295,3116
0.488,1.475,3116
0.489,1.488,3116
0.490,1.298,3116
0.491,0.932,3116
0.492,0.463,3116
0.493,-0.052,3135
0.494,-0.603,3135
0.495,-1.145,3135
0.496,-1.653,3135
0.497,-2.013,3135
0.498,-2.188,3135
0.499,-2.183,3135
0.500,-1.627,3135
0.501,-1.183,3135
0.502,-0.693,3123
0.503,-0.150,3123
0.504,0.388,3123
0.505,0.887,3123
0.506,1.255,3123
0.507,1.458,3123
0.508,1.468,3123
0.509,1.268,3123
0.510,0.917,3123
0.511,0.472,3123
0.512,-0.060,3118
0.513,-0.585,3118
0.514,-1.133,3118
0.515,-1.627,3118
0.516,-1.982,3118
0.517,-2.165,3118
0.518,-2.167,3118
0.519,-1.988,3118
0.520,-1.095,3118
0.521,-0.667,3123
0.522,-0.125,3123
0.523,0.422,3123
0.524,0.910,3123
0.525,1.265,3123
0.526,1.452,3123
0.527,1.452,3123
0.528,1.258,3123
0.529,0.907,3123
0.530,0.455,3123
0.531,-0.062,3133
0.532,-0.608,3133
0.533,-1.147,3133
0.534,-1.643,3133
0.535,-1.992,3133
0.536,-2.175,3133
0.537,-2.178,3133
0.538,-2.002,3133
0.539,-1.657,3133
0.540,-0.583,3132
0.541,0.422,3132
0.542,0.932,3132
0.543,1.308,3132
0.544,1.495,3132
0.545,1.512,3132
0.546,1.337,3132
0.547,0.988,3132
0.548,0.527,3132
0.549,0.018,3132
0.550,-0.545,3101
0.551,-1.110,3101
0.552,-1.620,3101
0.553,-1.988,3101
0.554,-2.175,3101
0.555,-2.183,3101
0.556,-2.013,3101
0.557,-1.683,3101
0.558,-1.210,3101
0.559,-0.703,3101
0.560,0.458,3109
0.561,1.268,3109
0.562,1.450,3109
0.563,1.468,3109
0.564,1.268,3109
0.565,0.927,3109
0.566,0.460,3109
0.567,-0.058,3109
0.568,-0.603,3101
0.569,-1.167,3101
0.570,-1.663,3101
0.571,-2.022,3101
0.572,-2.190,3101
0.573,-2.203,3101
0.574,-2.005,3101
0.575,-1.667,3101
0.576,-1.188,3101
0.577,-0.690,3101
0.578,-0.147,3120
0.579,0.407,3120
0.580,1.302,3120
0.581,1.448,3120
0.582,1.458,3120
0.583,1.262,3120
0.584,0.915,3120
0.585,0.460,3120
0.586,-0.052,3120
0.587,-0.588,3113
0.588,-1.153,3113
0.589,-1.643,3113
0.590,-1.995,3113
0.591,-2.178,3113
0.592,-2.180,3113
0.593,-1.988,3113
0.594,-1.653,3113
0.595,-1.180,3113
0.596,-0.665,3113
0.597,-0.133,3125
0.598,0.422,3125
0.599,0.910,3125
0.600,1.470,3125
0.601,1.462,3125
0.602,1.268,3125
0.603,0.917,3125
0.604,0.458,3125
0.605,-0.068,3125
0.606,-0.613,3083
0.607,-1.188,3083
0.608,-1.708,3083
0.609,-2.047,3083
0.610,-2.220,3083
0.611,-2.223,3083
0.612,-2.033,3083
0.613,-1.657,3083
0.614,-1.188,3083
0.615,-0.690,3083
0.616,-0.147,3120
0.617,0.412,3120
0.618,0.912,3120
0.619,1.278,3120
0.620,1.472,3120
0.621,1.317,3120
0.622,0.950,3120
0.623,0.505,3120
0.624,-0.022,3120
0.625,-0.550,3122
0.626,-1.123,3122
0.627,-1.623,3122
0.628,-1.995,3122
0.629,-2.180,3122
0.630,-2.192,3122
0.631,-2.018,3122
0.632,-1.688,3122
0.633,-1.215,3122
0.634,-0.700,3122
0.635,-0.172,3117
0.636,0.393,3117
0.637,0.882,3117
0.638,1.252,3117
0.639,1.452,3117
0.640,1.222,3117
0.641,0.902,3117
0.642,0.445,3117
0.643,-0.048,3117
0.644,-0.578,3120
0.645,-1.137,3120
0.646,-1.630,3120
0.647,-1.980,3120
0.648,-2.160,3120
0.649,-2.172,3120
0.650,-1.995,3120
0.651,-1.653,3120
0.652,-1.188,3120
0.653,-0.682,3120
0.654,-0.138,3121
0.655,0.410,3121
0.656,0.907,3121
0.657,1.258,3121
0.658,1.460,3121
0.659,1.470,3121
0.660,0.873,3121
0.661,0.460,3121
0.662,-0.022,3121
0.663,-0.560,3125
0.664,-1.143,3125
0.665,-1.633,3125
0.666,-2.005,3125
0.667,-2.185,3125
0.668,-2.208,3125
0.669,-2.027,3125
0.670,-1.692,3125
0.671,-1.218,3125
0.672,-0.708,3125
0.673,-0.177,3132
0.674,0.388,3132
0.675,0.877,3132
0.676,1.250,3132
0.677,1.448,3132
0.678,1.462,3132
0.679,1.262,3132
0.680,0.383,3132
0.681,-0.050,3132
0.682,-0.588,3120
0.683,-1.153,3120
0.684,-1.663,3120
0.685,-2.018,3120
0.686,-2.203,3120
0.687,-2.208,3120
0.688,-2.020,3120
0.689,-1.673,3120
0.690,-1.202,3120
0.691,-0.690,3120
0.692,-0.150,3094
0.693,0.412,3094
0.694,0.902,3094
0.695,1.268,3094
0.696,1.460,3094
0.697,1.468,3094
0.698,1.268,3094
0.699,0.907,3094
0.700,-0.180,3094
0.701,-0.655,3130
0.702,-1.202,3130
0.703,-1.695,3130
0.704,-2.035,3130
0.705,-2.223,3130
0.706,-2.220,3130
0.707,-2.033,3130
0.708,-1.688,3130
0.709,-1.218,3130
0.710,-0.703,3130
0.711,-0.163,3134
0.712,0.407,3134
0.713,0.890,3134
0.714,1.248,3134
0.715,1.433,3134
0.716,1.458,3134
0.717,1.262,3134
0.718,0.920,3134
0.719,0.460,3134
0.720,-0.700,3121
0.721,-1.665,3121
0.722,-2.015,3121
0.723,-2.190,3121
0.724,-2.188,3121
0.725,-2.020,3121
0.726,-1.685,3121
0.727,-1.218,3121
0.728,-0.708,3121
0.729,-0.177,3134
0.730,0.380,3134
0.731,0.873,3134
0.732,1.238,3134
0.733,1.427,3134
0.734,1.438,3134
0.735,1.250,3134
0.736,0.902,3134
0.737,0.438,3134
0.738,-0.052,3134
0.739,-0.595,3126
0.740,-1.778,3126
0.741,-2.010,3126
0.742,-2.188,3126
0.743,-2.185,3126
0.744,-1.998,3126
0.745,-1.660,3126
0.746,-1.183,3126
0.747,-0.667,3126
0.748,-0.140,3130
0.749,0.417,3130
0.750,0.897,3130
0.751,1.258,3130
0.752,1.448,3130
0.753,1.458,3130
0.754,1.260,3130
0.755,0.907,3130
0.756,0.438,3130
0.757,-0.072,3130
0.758,-0.618,3135
0.759,-1.177,3135
0.760,-2.062,3135
0.761,-2.195,3135
0.762,-2.205,3135
0.763,-2.018,3135
0.764,-1.667,3135
0.765,-1.202,3135
0.766,-0.685,3135
0.767,-0.147,3142
0.768,0.407,3142
0.769,0.902,3142
0.770,1.265,3142
0.771,1.458,3142
0.772,1.460,3142
0.773,1.260,3142
0.774,0.910,3142
0.775,0.453,3142
0.776,-0.060,3142
0.777,-0.603,3128
0.778,-1.167,3128
0.779,-1.667,3128
0.780,-2.220,3128
0.781,-2.208,3128
0.782,-2.027,3128
0.783,-1.683,3128
0.784,-1.205,3128
0.785,-0.672,3128
0.786,-0.133,3103
0.787,0.427,3103
0.788,0.917,3103
0.789,1.298,3103
0.790,1.468,3103
0.791,1.475,3103
0.792,1.270,3103
0.793,0.927,3103
0.794,0.458,3103
0.795,-0.055,3103
0.796,-0.593,3122
0.797,-1.165,3122
0.798,-1.657,3122
0.799,-2.013,3122
0.800,-2.178,3122
0.801,-1.988,3122
0.802,-1.657,3122
0.803,-1.192,3122
0.804,-0.688,3122
0.805,-0.163,3122
0.806,0.390,3123
0.807,0.905,3123
0.808,1.238,3123
0.809,1.452,3123
0.810,1.458,3123
0.811,1.268,3123
0.812,0.930,3123
0.813,0.468,3123
0.814,-0.043,3123
0.815,-0.568,3123
0.816,-1.133,3115
0.817,-1.657,3115
0.818,-2.013,3115
0.819,-2.190,3115
0.820,-1.990,3115
0.821,-1.698,3115
0.822,-1.228,3115
0.823,-0.703,3115
0.824,-0.172,3115
0.825,0.385,3130
0.826,0.892,3130
0.827,1.258,3130
0.828,1.458,3130
0.829,1.470,3130
0.830,1.298,3130
0.831,0.948,3130
0.832,0.497,3130
0.833,-0.020,3130
0.834,-0.573,3130
0.835,-1.135,3104
0.836,-1.653,3104
0.837,-2.018,3104
0.838,-2.203,3104
0.839,-2.217,3104
0.840,-1.627,3104
0.841,-1.212,3104
0.842,-0.733,3104
0.843,-0.207,3104
0.844,0.352,3107
0.845,0.868,3107
0.846,1.228,3107
0.847,1.420,3107
0.848,1.433,3107
0.849,1.252,3107
0.850,0.910,3107
0.851,0.440,3107
0.852,-0.065,3107
0.853,-0.608,3107
0.854,-1.153,3113
0.855,-1.665,3113
0.856,-2.018,3113
0.857,-2.188,3113
0.858,-2.208,3113
0.859,-2.020,3113
0.860,-1.110,3113
0.861,-0.688,3113
0.862,-0.138,3113
0.863,0.412,3112
0.864,0.920,3112
0.865,1.272,3112
0.866,1.470,3112
0.867,1.475,3112
0.868,1.298,3112
0.869,0.930,3112
0.870,0.448,3112
0.871,-0.075,3112
0.872,-0.623,3112
0.873,-1.188,3109
0.874,-1.698,3109
0.875,-2.045,3109
0.876,-2.217,3109
0.877,-2.212,3109
0.878,-2.042,3109
0.879,-1.698,3109
0.880,-0.583,3109
0.881,-0.058,3109
0.882,0.417,3106
0.883,0.900,3106
0.884,1.250,3106
0.885,1.452,3106
0.886,1.458,3106
0.887,1.265,3106
0.888,0.912,3106
0.889,0.458,3106
0.890,-0.065,3106
0.891,-0.605,3106
0.892,-1.163,3130
0.893,-1.663,3130
0.894,-2.018,3130
0.895,-2.190,3130
0.896,-2.205,3130
0.897,-2.022,3130
0.898,-1.683,3130
0.899,-1.218,3130
0.900,-0.070,3130
0.901,0.388,3109
0.902,0.905,3109
0.903,1.265,3109
0.904,1.468,3109
0.905,1.478,3109
0.906,1.305,3109
0.907,0.948,3109
0.908,0.497,3109
0.909,-0.028,3109
0.910,-0.578,3109
0.911,-1.135,3117
0.912,-1.655,3117
0.913,-2.007,3117
0.914,-2.188,3117
0.915,-2.203,3117
0.916,-2.013,3117
0.917,-1.663,3117
0.918,-1.192,3117
0.919,-0.682,3117
0.920,0.477,3128
0.921,1.270,3128
0.922,1.462,3128
0.923,1.482,3128
0.924,1.298,3128
0.925,0.938,3128
0.926,0.458,3128
0.927,-0.068,3128
0.928,-0.620,3128
0.929,-1.183,3116
0.930,-1.700,3116
0.931,-2.053,3116
0.932,-2.228,3116
0.933,-2.223,3116
0.934,-2.035,3116
0.935,-1.690,3116
0.936,-1.212,3116
0.937,-0.698,3116
0.938,-0.142,3116
0.939,0.412,3138
0.940,1.333,3138
0.941,1.475,3138
0.942,1.488,3138
0.943,1.300,3138
0.944,0.940,3138
0.945,0.477,3138
0.946,-0.043,3138
0.947,-0.575,3138
0.948,-1.133,3112
0.949,-1.647,3112
0.950,-1.992,3112
0.951,-2.180,3112
0.952,-2.188,3112
0.953,-2.005,3112
0.954,-1.667,3112
0.955,-1.205,3112
0.956,-0.693,3112
0.957,-0.165,3112
0.958,0.390,3134
0.959,0.902,3134
0.960,1.470,3134
0.961,1.470,3134
0.962,1.272,3134
0.963,0.938,3134
0.964,0.472,3134
0.965,-0.043,3134
0.966,-0.578,3134
0.967,-1.133,3133
0.968,-1.653,3133
0.969,-2.007,3133
0.970,-2.188,3133
0.971,-2.192,3133
0.972,-2.020,3133
0.973,-1.667,3133
0.974,-1.202,3133
0.975,-0.682,3133
0.976,-0.138,3133
0.977,0.417,3148
0.978,0.927,3148
0.979,1.300,3148
0.980,1.472,3148
0.981,1.312,3148
0.982,0.950,3148
0.983,0.492,3148
0.984,-0.033,3148
0.985,-0.570,3148
0.986,-1.125,3131
0.987,-1.643,3131
0.988,-1.992,3131
0.989,-2.178,3131
0.990,-2.183,3131
0.991,-2.005,3131
0.992,-1.667,3131
0.993,-1.202,3131
0.994,-0.690,3131
0.995,-0.142,3131
0.996,0.427,3136
0.997,0.902,3136
0.998,1.258,3136
0.999,1.470,3136
1.000,1.260,3136
1.001,0.958,3136
1.002,0.502,3136
1.003,-0.043,3136
1.004,-0.573,3136
1.005,-1.133,3130
1.006,-1.660,3130
1.007,-2.022,3130
1.008,-2.210,3130
1.009,-2.223,3130
1.010,-2.047,3130
1.011,-1.698,3130
1.012,-1.220,3130
1.013,-0.708,3130
1.014,-0.168,3130
1.015,0.395,3152
1.016,0.907,3152
1.017,1.272,3152
1.018,1.472,3152
1.019,1.492,3152
1.020,0.887,3152
1.021,0.500,3152
1.022,-0.025,3152
1.023,-0.568,3152
1.024,-1.130,3125
1.025,-1.647,3125
1.026,-2.013,3125
1.027,-2.190,3125
1.028,-2.208,3125
1.029,-2.027,3125
1.030,-1.688,3125
1.031,-1.212,3125
1.032,-0.703,3125
1.033,-0.168,3125
1.034,0.390,3128
1.035,0.902,3128
1.036,1.260,3128
1.037,1.470,3128
1.038,1.492,3128
1.039,1.317,3128
1.040,0.427,3128
1.041,-0.030,3128
1.042,-0.542,3128
1.043,-1.093,3130
1.044,-1.627,3130
1.045,-1.982,3130
1.046,-2.172,3130
1.047,-2.188,3130
1.048,-2.013,3130
1.049,-1.675,3130
1.050,-1.212,3130
1.051,-0.703,3130
1.052,-0.165,3130
1.053,0.388,3132
1.054,0.887,3132
1.055,1.248,3132
1.056,1.452,3132
1.057,1.458,3132
1.058,1.268,3132
1.059,0.927,3132
1.060,-0.175,3132
1.061,-0.625,3132
1.062,-1.167,3120
1.063,-2.053,3120
1.064,-2.197,3120
1.065,-2.205,3120
1.066,-2.020,3120
1.067,-1.677,3120
1.068,-1.215,3120
1.069,-0.703,3120
1.070,-0.163,3120
1.071,0.398,3120
1.072,0.902,3137
1.073,1.300,3137
1.074,1.488,3137
1.075,1.502,3137
1.076,1.323,3137
1.077,0.960,3137
1.078,0.502,3137
1.079,-0.018,3137
1.080,-1.188,3125
1.081,-1.992,3125
1.082,-2.178,3125
1.083,-2.192,3125
1.084,-2.018,3125
1.085,-1.683,3125
1.086,-1.210,3125
1.087,-0.698,3125
1.088,-0.150,3125
1.089,0.398,3125
1.090,0.915,3113
1.091,1.302,3113
1.092,1.498,3113
1.093,1.500,3113
1.094,1.323,3113
1.095,0.958,3113
1.096,0.500,3113
1.097,-0.383,3113
1.098,-1.150,3113
1.099,-1.653,3105
1.100,-2.220,3105
1.101,-2.217,3105
1.102,-2.018,3105
1.103,-1.683,3105
1.104,-1.208,3105
1.105,-0.688,3105
1.106,-0.147,3105
1.107,0.407,3105
1.108,0.912,3120
1.109,1.300,3120
1.110,1.468,3120
1.111,1.488,3120
1.112,1.275,3120
1.113,0.932,3120
1.114,0.463,3120
1.115,-0.058,3120
1.116,-0.600,3120
1.117,-1.160,3120
1.118,-1.663,3116
1.119,-2.027,3116
1.120,-2.192,3116
1.121,-2.035,3116
1.122,-1.698,3116
1.123,-1.222,3116
1.124,-0.705,3116
1.125,-0.177,3116
1.126,0.378,3116
1.127,0.877,3072
1.128,1.252,3072
1.129,1.430,3072
1.130,1.452,3072
1.131,1.255,3072
1.132,0.917,3072
1.133,0.453,3072
1.134,-0.055,3072
1.135,-0.578,3072
1.136,-1.123,3072
1.137,-1.627,3116
1.138,-2.002,3116
1.139,-2.172,3116
1.140,-1.968,3116
1.141,-1.647,3116
1.142,-1.192,3116
1.143,-0.685,3116
1.144,-0.147,3116
1.145,0.388,3116
1.146,0.875,3121
1.147,1.258,3121
1.148,1.452,3121
1.149,1.462,3121
1.150,1.292,3121
1.151,0.932,3121
1.152,0.472,3121
1.153,-0.048,3121
1.154,-0.583,3121
1.155,-1.140,3121
1.156,-1.643,3112
1.157,-2.013,3112
1.158,-2.188,3112
1.159,-2.205,3112
1.160,-1.617,3112
1.161,-1.218,3112
1.162,-0.700,3112
1.163,-0.168,3112
1.164,0.393,3112
1.165,0.890,3122
1.166,1.272,3122
1.167,1.468,3122
1.168,1.492,3122
1.169,1.323,3122
1.170,0.958,3122
1.171,0.505,3122
1.172,-0.018,3122
1.173,-0.565,3122
1.174,-1.133,3122
1.175,-1.653,3132
1.176,-2.022,3132
1.177,-2.205,3132
1.178,-2.208,3132
1.179,-2.027,3132
1.180,-1.127,3132
1.181,-0.693,3132
1.182,-0.163,3132
1.183,0.395,3132
1.184,0.892,3123
1.185,1.255,3123
1.186,1.438,3123
1.187,1.460,3123
1.188,1.252,3123
1.189,0.927,3123
1.190,0.458,3123
1.191,-0.060,3123
1.192,-0.593,3123
1.193,-1.150,3123
1.194,-1.657,3130
1.195,-2.015,3130
1.196,-2.190,3130
1.197,-2.205,3130
1.198,-2.022,3130
1.199,-1.673,3130
1.200,-0.603,3130
1.201,-0.138,3130
1.202,0.390,3130
1.203,0.892,3136
1.204,1.262,3136
1.205,1.458,3136
1.206,1.462,3136
1.207,1.268,3136
1.208,0.917,3136
1.209,0.458,3136
1.210,-0.058,3136
1.211,-0.593,3136
1.212,-1.163,3136
1.213,-1.667,3132
1.214,-2.033,3132
1.215,-2.210,3132
1.216,-2.215,3132
1.217,-2.030,3132
1.218,-1.692,3132
1.219,-1.218,3132
1.220,-0.072,3132
1.221,0.388,3132
1.222,0.892,3134
1.223,1.260,3134
1.224,1.460,3134
1.225,1.470,3134
1.226,1.300,3134
1.227,0.943,3134
1.228,0.495,3134
1.229,-0.028,3134
1.230,-0.552,3134
1.231,-1.103,3134
1.232,-1.613,3154
1.233,-1.985,3154
1.234,-2.167,3154
1.235,-2.188,3154
1.236,-2.007,3154
1.237,-1.663,3154
1.238,-1.192,3154
1.239,-0.682,3154
1.240,0.477,3154
1.241,0.887,3120
1.242,1.248,3120
1.243,1.435,3120
1.244,1.458,3120
1.245,1.262,3120
1.246,0.927,3120
1.247,0.470,3120
1.248,-0.033,3120
1.249,-0.573,3120
1.250,-1.130,3120
1.251,-1.633,3086
1.252,-2.005,3086
1.253,-2.183,3086
1.254,-2.203,3086
1.255,-2.027,3086
1.256,-1.692,3086
1.257,-1.225,3086
1.258,-0.708,3086
1.259,-0.170,3086
1.260,0.958,3143
1.261,1.462,3143
1.262,1.488,3143
1.263,1.302,3143
1.264,0.950,3143
1.265,0.495,3143
1.266,-0.028,3143
1.267,-0.578,3143
1.268,-1.140,3143
1.269,-1.653,3133
1.270,-2.027,3133
1.271,-2.210,3133
1.272,-2.223,3133
1.273,-2.053,3133
1.274,-1.718,3133
1.275,-1.250,3133
1.276,-0.728,3133
1.277,-0.188,3133
1.278,0.372,3133
1.279,0.868,3128
1.280,1.458,3128
1.281,1.462,3128
1.282,1.265,3128
1.283,0.927,3128
1.284,0.422,3128
1.285,-0.050,3128
1.286,-0.583,3128
1.287,-1.133,3128
1.288,-1.643,3113
1.289,-2.018,3113
1.290,-2.192,3113
1.291,-2.203,3113
1.292,-2.027,3113
1.293,-1.688,3113
1.294,-1.210,3113
1.295,-0.698,3113
1.296,-0.170,3113
1.297,0.390,3113
1.298,0.895,3129
1.299,1.268,3129
1.300,1.462,3129
1.301,1.308,3129
1.302,0.943,3129
1.303,0.477,3129
1.304,-0.048,3129
1.305,-0.578,3129
1.306,-1.140,3129
1.307,-1.643,3119
1.308,-2.013,3119
1.309,-2.185,3119
1.310,-2.192,3119
1.311,-1.948,3119
1.312,-1.663,3119
1.313,-1.188,3119
1.314,-0.670,3119
1.315,-0.135,3119
1.316,0.410,3119
1.317,0.902,3123
1.318,1.260,3123
1.319,1.450,3123
1.320,1.212,3123
1.321,0.912,3123
1.322,0.453,3123
1.323,-0.062,3123
1.324,-0.613,3123
1.325,-1.165,3123
1.326,-1.660,3123
1.327,-2.025,3125
1.328,-2.210,3125
1.329,-2.223,3125
1.330,-2.053,3125
1.331,-1.712,3125
1.332,-1.242,3125
1.333,-0.728,3125
1.334,-0.185,3125
1.335,0.380,3125
1.336,0.892,3125
1.337,1.258,3116
1.338,1.458,3116
1.339,1.472,3116
1.340,0.885,3116
1.341,0.450,3116
1.342,-0.028,3116
1.343,-0.562,3116
1.344,-1.123,3116
1.345,-1.633,3116
1.346,-2.007,3105
1.347,-2.192,3105
1.348,-2.208,3105
1.349,-2.027,3105
1.350,-1.698,3105
1.351,-1.222,3105
1.352,-0.703,3105
1.353,-0.172,3105
1.354,0.388,3105
1.355,0.877,3105
1.356,1.248,3119
1.357,1.438,3119
1.358,1.455,3119
1.359,1.258,3119
1.360,0.380,3119
1.361,-0.060,3119
1.362,-0.588,3119
1.363,-1.137,3119
1.364,-1.647,3119
1.365,-2.010,3110
1.366,-2.190,3110
1.367,-2.212,3110
1.368,-2.033,3110
1.369,-1.705,3110
1.370,-1.248,3110
1.371,-0.733,3110
1.372,-0.198,3110
1.373,0.355,3110
1.374,0.860,3110
1.375,1.230,3125
1.376,1.438,3125
1.377,1.460,3125
1.378,1.272,3125
1.379,0.938,3125
1.380,-0.113,3125
1.381,-0.562,3125
1.382,-1.145,3125
1.383,-1.630,3125
1.384,-1.992,3096
1.385,-2.188,3096
1.386,-2.208,3096
1.387,-2.033,3096
1.388,-1.688,3096
1.389,-1.230,3096
1.390,-0.713,3096
1.391,-0.180,3096
1.392,0.388,3096
1.393,0.887,3096
1.394,1.258,3064
1.395,1.470,3064
1.396,1.490,3064
1.397,1.317,3064
1.398,0.958,3064
1.399,0.510,3064
1.400,-0.652,3064
1.401,-1.137,3064
1.402,-1.617,3064
1.403,-1.988,3122
1.404,-2.180,3122
1.405,-2.188,3122
1.406,-2.010,3122
1.407,-1.667,3122
1.408,-1.202,3122
1.409,-0.698,3122
1.410,-0.168,3122
1.411,0.385,3122
1.412,0.887,3122
1.413,1.258,3114
1.414,1.460,3114
1.415,1.475,3114
1.416,1.305,3114
1.417,0.953,3114
1.418,0.500,3114
1.419,-0.020,3114
1.420,-1.208,3114
1.421,-1.627,3114
1.422,-2.002,3130
1.423,-2.188,3130
1.424,-2.203,3130
1.425,-2.022,3130
1.426,-1.688,3130
1.427,-1.222,3130
1.428,-0.713,3130
1.429,-0.182,3130
1.430,0.372,3130
1.431,0.868,3130
1.432,1.238,3121
1.433,1.433,3121
1.434,1.458,3121
1.435,1.270,3121
1.436,0.932,3121
1.437,0.472,3121
1.438,-0.033,3121
1.439,-0.573,3121
1.440,-1.708,3121
1.441,-2.007,3125
1.442,-2.203,3125
1.443,-2.212,3125
1.444,-2.042,3125
1.445,-1.710,3125
1.446,-1.245,3125
1.447,-0.733,3125
1.448,-0.203,3125
1.449,0.347,3125
1.450,0.848,3125
1.451,1.212,3109
1.452,1.415,3109
1.453,1.425,3109
1.454,1.248,3109
1.455,0.910,3109
1.456,0.453,3109
1.457,-0.060,3109
1.458,-0.593,3109
1.459,-1.147,3109
1.460,-2.062,3138
1.461,-2.223,3138
1.462,-2.053,3138
1.463,-1.715,3138
1.464,-1.262,3138
1.465,-0.743,3138
1.466,-0.215,3138
1.467,0.343,3138
1.468,0.848,3138
1.469,1.220,3116
1.470,1.423,3116
1.471,1.458,3116
1.472,1.262,3116
1.473,0.932,3116
1.474,0.468,3116
1.475,-0.043,3116
1.476,-0.580,3116
1.477,-1.137,3116
1.478,-1.643,3116
1.479,-2.018,3144
1.480,-2.167,3144
1.481,-1.972,3144
1.482,-1.667,3144
1.483,-1.215,3144
1.484,-0.693,3144
1.485,-0.150,3144
1.486,0.388,3144
1.487,0.887,3144
1.488,1.258,3144
1.489,1.458,3144
1.490,1.458,3144
1.491,1.262,3144
1.492,0.917,3144
1.493,0.460,3144
1.494,-0.055,3144
1.495,-0.583,3144
1.496,-1.147,3144
1.497,-1.653,3144
1.498,-2.018,3149
1.499,-2.197,3149
1.500,-1.988,3149
1.501,-1.655,3149
1.502,-1.220,3149
1.503,-0.703,3149
1.504,-0.170,3149
1.505,0.390,3149
1.506,0.897,3149
1.507,1.268,3129
1.508,1.458,3129
1.509,1.462,3129
1.510,1.268,3129
1.511,0.930,3129
1.512,0.463,3129
1.513,-0.043,3129
1.514,-0.580,3129
1.515,-1.130,3129
1.516,-1.633,3129
1.517,-1.990,3132
1.518,-2.185,3132
1.519,-2.190,3132
1.520,-1.617,3132
1.521,-1.218,3132
1.522,-0.703,3132
1.523,-0.170,3132
1.524,0.390,3132
1.525,0.897,3132
1.526,1.258,3134
1.527,1.438,3134
1.528,1.465,3134
1.529,1.262,3134
1.530,0.915,3134
1.531,0.455,3134
1.532,-0.062,3134
1.533,-0.603,3134
1.534,-1.153,3134
1.535,-1.657,3134
1.536,-2.015,3111
1.537,-2.205,3111
1.538,-2.217,3111
1.539,-2.047,3111
1.540,-1.163,3111
1.541,-0.710,3111
1.542,-0.193,3111
1.543,0.352,3111
1.544,0.858,3111
1.545,1.222,3119
1.546,1.410,3119
1.547,1.420,3119
1.548,1.228,3119
1.549,0.877,3119
1.550,0.415,3119
1.551,-0.105,3119
1.552,-0.647,3119
1.553,-1.192,3119
1.554,-1.692,3119
1.555,-2.047,3121
1.556,-2.225,3121
1.557,-2.228,3121
1.558,-2.047,3121
1.559,-1.700,3121
1.560,-0.620,3121
1.561,-0.180,3121
1.562,0.378,3121
1.563,0.877,3121
1.564,1.248,3108
1.565,1.438,3108
1.566,1.452,3108
1.567,1.260,3108
1.568,0.917,3108
1.569,0.458,3108
1.570,-0.058,3108
1.571,-0.595,3108
1.572,-1.147,3108
1.573,-1.665,3108
1.574,-2.042,3123
1.575,-2.228,3123
1.576,-2.252,3123
1.577,-2.058,3123
1.578,-1.732,3123
1.579,-1.262,3123
1.580,-0.113,3123
1.581,0.350,3123
1.582,0.897,3123
1.583,1.222,3116
1.584,1.420,3116
1.585,1.433,3116
1.586,1.238,3116
1.587,0.897,3116
1.588,0.427,3116
1.589,-0.092,3116
1.590,-0.623,3116
1.591,-1.183,3116
1.592,-1.688,3116
1.593,-2.038,3116
1.594,-2.217,3103
1.595,-2.223,3103
1.596,-2.045,3103
1.597,-1.698,3103
1.598,-1.220,3103
1.599,-0.710,3103
1.600,0.463,3103
1.601,0.877,3103
1.602,1.248,3103
1.603,1.433,3115
1.604,1.455,3115
1.605,1.262,3115
1.606,0.917,3115
1.607,0.453,3115
1.608,-0.075,3115
1.609,-0.613,3115
1.610,-1.163,3115
1.611,-1.663,3115
1.612,-2.025,3115
1.613,-2.208,3116
1.614,-2.217,3116
1.615,-2.045,3116
1.616,-1.708,3116
1.617,-1.238,3116
1.618,-0.733,3116
1.619,-0.203,3116
1.620,0.927,3116
1.621,1.232,3116
1.622,1.420,3108
1.623,1.433,3108
1.624,1.258,3108
1.625,0.927,3108
1.626,0.463,3108
1.627,-0.058,3108
1.628,-0.583,3108
1.629,-1.130,3108
1.630,-1.640,3108
1.631,-2.007,3108
1.632,-2.190,3123
1.633,-2.203,3123
1.634,-2.025,3123
1.635,-1.692,3123
1.636,-1.222,3123
1.637,-0.710,3123
1.638,-0.182,3123
1.639,0.375,3123
1.640,1.272,3106
1.641,1.423,3106
1.642,1.252,3106
1.643,0.917,3106
1.644,0.458,3106
1.645,-0.055,3106
1.646,-0.585,3106
1.647,-1.145,3106
1.648,-1.655,3106
1.649,-2.020,3106
1.650,-2.203,3131
1.651,-2.208,3131
1.652,-2.025,3131
1.653,-1.692,3131
1.654,-1.215,3131
1.655,-0.703,3131
1.656,-0.172,3131
1.657,0.383,3131
1.658,0.882,3131
1.659,1.252,3131
1.660,1.458,3111
1.661,0.935,3111
1.662,0.472,3111
1.663,-0.048,3111
1.664,-0.583,3111
1.665,-1.143,3111
1.666,-1.653,3111
1.667,-2.022,3111
1.668,-2.208,3104
1.669,-2.223,3104
1.670,-2.053,3104
1.671,-1.710,3104
1.672,-1.212,3104
1.673,-0.718,3104
1.674,-0.182,3104
1.675,0.375,3104
1.676,0.870,3104
1.677,1.235,3104
1.678,1.427,3118
1.679,1.438,3118
1.680,0.838,3118
1.681,0.415,3118
1.682,-0.058,3118
1.683,-0.605,3118
1.684,-1.140,3118
1.685,-1.653,3118
1.686,-2.002,3118
1.687,-2.183,3111
1.688,-2.192,3111
1.689,-2.007,3111
1.690,-1.683,3111
1.691,-1.218,3111
1.692,-0.705,3111
1.693,-0.175,3111
1.694,0.378,3111
1.695,0.873,3111
1.696,1.232,3111
1.697,1.433,3135
1.698,1.458,3135
1.699,1.268,3135
1.700,0.388,3135
1.701,-0.072,3135
1.702,-0.580,3135
1.703,-1.130,3135
1.704,-1.657,3135
1.705,-2.020,3135
1.706,-2.205,3121
1.707,-2.210,3121
1.708,-2.033,3121
1.709,-1.613,3121
1.710,-1.190,3121
1.711,-0.688,3121
1.712,-0.180,3121
1.713,0.432,3121
1.714,0.877,3121
1.715,1.238,3121
1.716,1.438,3081
1.717,1.250,3081
1.718,0.897,3081
1.719,0.460,3081
1.720,-0.688,3081
1.721,-1.143,3081
1.722,-1.653,3081
1.723,-2.022,3081
1.724,-2.212,3122
1.725,-2.228,3122
1.726,-2.058,3122
1.727,-1.710,3122
1.728,-1.238,3122
1.729,-0.728,3122
1.730,-0.188,3122
1.731,0.372,3122
1.732,0.887,3122
1.733,1.252,3122
1.734,1.450,3127
1.735,1.465,3127
1.736,1.262,3127
1.737,0.917,3127
1.738,0.458,3127
1.739,-0.060,3127
1.740,-1.228,3127
1.741,-1.657,3127
1.742,-2.022,3127
1.743,-2.212,3139
1.744,-2.243,3139
1.745,-2.060,3139
1.746,-1.730,3139
1.747,-1.260,3139
1.748,-0.752,3139
1.749,-0.217,3139
1.750,0.343,3139
1.751,0.848,3139
1.752,1.215,3139
1.753,1.423,3155
1.754,1.450,3155
1.755,1.268,3155
1.756,0.932,3155
1.757,0.472,3155
1.758,-0.043,3155
1.759,-0.578,3155
1.760,-1.715,3155
1.761,-2.027,3155
1.762,-2.195,3138
1.763,-2.220,3138
1.764,-2.047,3138
1.765,-1.708,3138
1.766,-1.228,3138
1.767,-0.713,3138
1.768,-0.125,3138
1.769,0.378,3138
1.770,0.873,3138
1.771,1.255,3138
1.772,1.462,3140
1.773,1.468,3140
1.774,1.270,3140
1.775,0.915,3140
1.776,0.468,3140
1.777,-0.052,3140
1.778,-0.593,3140
1.779,-1.145,3140
1.780,-2.053,3140
1.781,-2.188,3128
1.782,-2.192,3128
1.783,-2.013,3128
1.784,-1.667,3128
1.785,-1.202,3128
1.786,-0.693,3128
1.787,-0.163,3128
1.788,0.393,3128
1.789,0.890,3128
1.790,1.258,3128
1.791,1.452,3125
1.792,1.460,3125
1.793,1.258,3125
1.794,0.907,3125
1.795,0.450,3125
1.796,-0.065,3125
1.797,-0.605,3125
1.798,-1.153,3125
1.799,-1.655,3125
1.800,-2.210,3135
1.801,-2.018,3135
1.802,-1.692,3135
1.803,-1.222,3135
1.804,-0.713,3135
1.805,-0.190,3135
1.806,0.367,3135
1.807,0.858,3135
1.808,1.222,3135
1.809,1.425,3093
1.810,1.433,3093
1.811,1.252,3093
1.812,0.917,3093
1.813,0.468,3093
1.814,-0.048,3093
1.815,-0.578,3093
1.816,-1.123,3093
1.817,-1.627,3093
1.818,-1.992,3093
1.819,-2.180,3123
1.820,-2.005,3123
1.821,-1.657,3123
1.822,-1.188,3123
1.823,-0.718,3123
1.824,-0.188,3123
1.825,0.370,3123
1.826,0.868,3123
1.827,1.248,3123
1.828,1.452,3119
1.829,1.458,3119
1.830,1.268,3119
1.831,0.932,3119
1.832,0.468,3119
1.833,-0.048,3119
1.834,-0.583,3119
1.835,-1.137,3119
1.836,-1.647,3119
1.837,-2.010,3119
1.838,-2.188,3119
1.839,-2.208,3112
1.840,-1.623,3112
1.841,-1.228,3112
1.842,-0.713,3112
1.843,-0.177,3112
1.844,0.380,3112
1.845,0.887,3112
1.846,1.252,3112
1.847,1.460,3112
1.848,1.472,3125
1.849,1.270,3125
1.850,0.940,3125
1.851,0.475,3125
1.852,-0.043,3125
1.853,-0.578,3125
1.854,-1.133,3125
1.855,-1.630,3125
1.856,-1.992,3125
1.857,-2.192,3125
1.858,-2.205,3113
1.859,-2.022,3113
1.860,-1.163,3113
1.861,-0.693,3113
1.862,-0.182,3113
1.863,0.367,3113
1.864,0.868,3113
1.865,1.240,3113
1.866,1.413,3113
1.867,1.425,3105
1.868,1.228,3105
1.869,0.892,3105
1.870,0.448,3105
1.871,-0.083,3105
1.872,-0.593,3105
1.873,-1.147,3105
1.874,-1.647,3105
1.875,-2.007,3105
1.876,-2.188,3105
1.877,-2.195,3113
1.878,-2.015,3113
1.879,-1.665,3113
1.880,-0.583,3113
1.881,-0.140,3113
1.882,0.407,3113
1.883,0.902,3113
1.884,1.270,3113
1.885,1.470,3113
1.886,1.488,3100
1.887,1.300,3100
1.888,0.943,3100
1.889,0.472,3100
1.890,-0.043,3100
1.891,-0.588,3100
1.892,-1.145,3100
1.893,-1.655,3100
1.894,-2.013,3100
1.895,-2.200,3100
1.896,-2.208,3122
1.897,-2.022,3122
1.898,-1.692,3122
1.899,-1.228,3122
1.900,-0.102,3122
1.901,0.383,3122
1.902,0.863,3122
1.903,1.232,3122
1.904,1.427,3122
1.905,1.458,3112
1.906,1.262,3112
1.907,0.938,3112
1.908,0.477,3112
1.909,-0.028,3112
1.910,-0.568,3112
1.911,-1.110,3112
1.912,-1.625,3112
1.913,-1.982,3112
1.914,-2.175,3112
1.915,-2.192,3125
1.916,-2.013,3125
1.917,-1.692,3125
1.918,-1.212,3125
1.919,-0.703,3125
1.920,0.463,3125
1.921,0.902,3125
1.922,1.238,3125
1.923,1.435,3125
1.924,1.458,3117
1.925,1.270,3117
1.926,0.940,3117
1.927,0.477,3117
1.928,-0.028,3117
1.929,-0.562,3117
1.930,-1.107,3117
1.931,-1.625,3117
1.932,-1.988,3117
1.933,-2.178,3117
1.934,-2.192,3116
1.935,-2.018,3116
1.936,-1.688,3116
1.937,-1.225,3116
1.938,-0.703,3116
1.939,-0.182,3116
1.940,0.940,3116
1.941,1.272,3116
1.942,1.458,3116
1.943,1.475,3124
1.944,1.300,3124
1.945,0.953,3124
1.946,0.507,3124
1.947,-0.013,3124
1.948,-0.550,3124
1.949,-1.097,3124
1.950,-1.613,3124
1.951,-1.978,3124
1.952,-2.180,3124
1.953,-2.203,3127
1.954,-2.027,3127
1.955,-1.698,3127
1.956,-1.228,3127
1.957,-0.713,3127
1.958,-0.180,3127
1.959,0.383,3127
1.960,1.302,3127
1.961,1.452,3127
1.962,1.458,3130
1.963,1.258,3130
1.964,0.930,3130
1.965,0.468,3130
1.966,-0.048,3130
1.967,-0.588,3130
1.968,-1.163,3130
1.969,-1.647,3130
1.970,-2.002,3130
1.971,-2.178,3130
1.972,-2.188,3133
1.973,-2.010,3133
1.974,-1.670,3133
1.975,-1.205,3133
1.976,-0.700,3133
1.977,-0.170,3133
1.978,0.388,3133
1.979,0.892,3133
1.980,1.468,3133
1.981,1.458,3134
1.982,1.260,3134
1.983,0.917,3134
1.984,0.463,3134
1.985,-0.050,3134
1.986,-0.583,3134
1.987,-1.130,3134
1.988,-1.633,3134
1.989,-1.992,3134
1.990,-2.172,3134
1.991,-2.192,3134
1.992,-2.013,3134
1.993,-1.663,3134
1.994,-1.205,3134
1.995,-0.688,3134
1.996,-0.163,3134
1.997,0.390,3134
1.998,0.890,3134
1.999,1.252,3134
2.000,1.452,3138
2.001,0.943,3138
2.002,0.477,3138
2.003,-0.025,3138
2.004,-0.562,3138
2.005,-1.107,3138
2.006,-1.613,3138
2.007,-1.968,3138
2.008,-2.147,3138
2.009,-2.163,3129
2.010,-1.978,3129
2.011,-1.633,3129
2.012,-1.167,3129
2.013,-0.657,3129
2.014,-0.125,3129
2.015,0.417,3129
2.016,0.907,3129
2.017,1.265,3129
2.018,1.462,3129
2.019,1.470,3125
2.020,0.848,3125
2.021,0.367,3125
2.022,-0.058,3125
2.023,-0.583,3125
2.024,-1.133,3125
2.025,-1.627,3125
2.026,-1.982,3125
2.027,-2.163,3125
2.028,-2.163,3147
2.029,-1.972,3147
2.030,-1.643,3147
2.031,-1.167,3147
2.032,-0.655,3147
2.033,-0.117,3147
2.034,0.427,3147
2.035,0.912,3147
2.036,1.292,3147
2.037,1.472,3147
2.038,1.492,3144
2.039,1.292,3144
2.040,0.393,3144
2.041,-0.045,3144
2.042,-0.590,3144
2.043,-1.153,3144
2.044,-1.667,3144
2.045,-2.033,3144
2.046,-2.212,3144
2.047,-2.220,3124
2.048,-2.033,3124
2.049,-1.700,3124
2.050,-1.222,3124
2.051,-0.703,3124
2.052,-0.163,3124
2.053,0.395,3124
2.054,0.902,3124
2.055,1.268,3124
2.056,1.470,3124
2.057,1.478,3132
2.058,1.262,3132
2.059,0.912,3132
2.060,-0.147,3132
2.061,-0.613,3132
2.062,-1.165,3132
2.063,-1.657,3132
2.064,-2.013,3132
2.065,-2.183,3132
2.066,-2.188,3120
2.067,-2.002,3120
2.068,-1.657,3120
2.069,-1.188,3120
2.070,-0.682,3120
2.071,-0.133,3120
2.072,0.420,3120
2.073,0.922,3120
2.074,1.305,3120
2.075,1.495,3120
2.076,1.502,3120
2.077,1.312,3120
2.078,0.953,3120
2.079,0.500,3120
2.080,-0.660,3120
2.081,-1.143,3120
2.082,-1.627,3120
2.083,-1.982,3120
2.084,-2.163,3120
2.085,-2.172,3122
2.086,-1.988,3122
2.087,-1.663,3122
2.088,-1.192,3122
2.089,-0.688,3122
2.090,-0.150,3122
2.091,0.398,3122
2.092,0.902,3122
2.093,1.262,3122
2.094,1.468,3122
2.095,1.472,3122
2.096,1.272,3122
2.097,0.927,3122
2.098,0.468,3122
2.099,-0.048,3122
2.100,-1.220,3122
2.101,-1.643,3122
2.102,-2.007,3122
2.103,-2.180,3122
2.104,-2.188,3122
2.105,-2.007,3098
2.106,-1.655,3098
2.107,-1.190,3098
2.108,-0.688,3098
2.109,-0.163,3098
2.110,0.383,3098
2.111,0.887,3098
2.112,1.232,3098
2.113,1.427,3098
2.114,1.435,3098
2.115,1.252,3125
2.116,0.912,3125
2.117,0.463,3125
2.118,-0.058,3125
2.119,-0.588,3125
2.120,-1.712,3125
2.121,-2.033,3125
2.122,-2.192,3125
2.123,-2.208,3125
2.124,-2.020,3124
2.125,-1.673,3124
2.126,-1.210,3124
2.127,-0.698,3124
2.128,-0.168,3124
2.129,0.390,3124
2.130,0.892,3124
2.131,1.258,3124
2.132,1.460,3124
2.133,1.468,3124
2.134,1.272,3124
2.135,0.927,3124
2.136,0.472,3124
2.137,-0.043,3124
2.138,-0.583,3124
2.139,-1.133,3124
2.140,-2.042,3124
2.141,-2.188,3124
2.142,-2.188,3070
2.143,-1.673,3070
2.144,-1.228,3070
2.145,-0.723,3070
2.146,-0.188,3070
2.147,0.370,3070
2.148,0.865,3070
2.149,1.228,3070
2.150,1.420,3070
2.151,1.433,3070
2.152,1.258,3106
2.153,0.902,3106
2.154,0.455,3106
2.155,-0.062,3106
2.156,-0.627,3106
2.157,-1.170,3106
2.158,-1.660,3106
2.159,-2.025,3106
2.160,-2.203,3104
2.161,-1.623,3104
2.162,-1.202,3104
2.163,-0.705,3104
2.164,-0.170,3104
2.165,0.388,3104
2.166,0.885,3104
2.167,1.250,3104
2.168,1.433,3104
2.169,1.438,3104
2.170,1.252,3114
2.171,0.892,3114
2.172,0.432,3114
2.173,-0.072,3114
2.174,-0.613,3114
2.175,-1.167,3114
2.176,-1.663,3114
2.177,-2.018,3114
2.178,-2.188,3114
2.179,-2.192,3114
2.180,-1.643,3144
2.181,-0.672,3144
2.182,-0.122,3144
2.183,0.388,3144
2.184,0.892,3144
2.185,1.258,3144
2.186,1.458,3144
2.187,1.482,3144
2.188,1.300,3115
2.189,0.938,3115
2.190,0.468,3115
2.191,-0.048,3115
2.192,-0.588,3115
2.193,-1.145,3115
2.194,-1.650,3115
2.195,-2.007,3115
2.196,-2.185,3115
2.197,-2.190,3115
2.198,-2.002,3127
2.199,-1.653,3127
2.200,-0.578,3127
2.201,-0.128,3127
2.202,0.427,3127
2.203,0.915,3127
2.204,1.295,3127
2.205,1.475,3127
2.206,1.490,3127
2.207,1.310,3129
2.208,0.943,3129
2.209,0.495,3129
2.210,-0.028,3129
2.211,-0.573,3129
2.212,-1.130,3129
2.213,-1.647,3129
2.214,-2.013,3129
2.215,-2.205,3129
2.216,-2.217,3129
2.217,-2.042,3131
2.218,-1.705,3131
2.219,-1.248,3131
2.220,-0.098,3131
2.221,0.367,3131
2.222,0.868,3131
2.223,1.232,3131
2.224,1.427,3131
2.225,1.448,3131
2.226,1.258,3135
2.227,0.910,3135
2.228,0.453,3135
2.229,-0.062,3135
2.230,-0.608,3135
2.231,-1.163,3135
2.232,-1.660,3135
2.233,-2.020,3135
2.234,-2.212,3135
2.235,-2.230,3135
2.236,-2.055,3136
2.237,-1.705,3136
2.238,-1.248,3136
2.239,-0.738,3136
2.240,0.450,3136
2.241,0.863,3136
2.242,1.235,3136
2.243,1.423,3136
2.244,1.430,3136
2.245,1.238,3104
2.246,0.892,3104
2.247,0.432,3104
2.248,-0.083,3104
2.249,-0.613,3104
2.250,-1.163,3104
2.251,-1.712,3104
2.252,-2.030,3104
2.253,-2.208,3104
2.254,-2.223,3104
2.255,-1.978,3099
2.256,-1.210,3099
2.257,-0.723,3099
2.258,-0.177,3099
2.259,0.378,3099
2.260,1.265,3099
2.261,1.430,3099
2.262,1.433,3099
2.263,1.252,3139
2.264,0.887,3139
2.265,0.432,3139
2.266,-0.075,3139
2.267,-0.618,3139
2.268,-1.167,3139
2.269,-1.670,3139
2.270,-2.033,3139
2.271,-2.220,3139
2.272,-2.228,3139
2.273,-2.050,3127
2.274,-1.695,3127
2.275,-1.218,3127
2.276,-0.698,3127
2.277,-0.163,3127
2.278,0.393,3127
2.279,0.895,3127
2.280,1.460,3127
2.281,1.452,3127
2.282,1.268,3129
2.283,0.917,3129
2.284,0.448,3129
2.285,-0.062,3129
2.286,-0.608,3129
2.287,-1.165,3129
2.288,-1.665,3129
2.289,-2.027,3129
2.290,-2.212,3129
2.291,-2.223,3129
2.292,-2.035,3126
2.293,-1.692,3126
2.294,-1.222,3126
2.295,-0.713,3126
2.296,-0.180,3126
2.297,0.372,3126
2.298,0.875,3126
2.299,1.252,3126
2.300,1.435,3126
2.301,1.262,3117
2.302,0.907,3117
2.303,0.453,3117
2.304,-0.128,3117
2.305,-0.573,3117
2.306,-1.095,3117
2.307,-1.603,3117
2.308,-1.945,3117
2.309,-2.138,3117
2.310,-2.152,3117
2.311,-1.965,3124
2.312,-1.660,3124
2.313,-1.202,3124
2.314,-0.693,3124
2.315,-0.168,3124
2.316,0.383,3124
2.317,0.892,3124
2.318,1.262,3124
2.319,1.468,3124
2.320,1.230,3137
2.321,0.422,3137
2.322,-0.060,3137
2.323,-0.605,3137
2.324,-1.150,3137
2.325,-1.657,3137
2.326,-2.013,3137
2.327,-2.188,3137
2.328,-2.192,3137
2.329,-2.020,3095
2.330,-1.670,3095
2.331,-1.208,3095
2.332,-0.682,3095
2.333,-0.140,3095
2.334,0.417,3095
2.335,0.912,3095
2.336,1.272,3095
2.337,1.472,3095
2.338,1.488,3095
2.339,1.302,3117
2.340,0.378,3117
2.341,-0.062,3117
2.342,-0.613,3117
2.343,-1.163,3117
2.344,-1.667,3117
2.345,-2.025,3117
2.346,-2.208,3117
2.347,-2.208,3117
2.348,-2.022,3117
2.349,-1.667,3117
2.350,-1.192,3117
2.351,-0.688,3117
2.352,-0.142,3117
2.353,0.425,3117
2.354,0.912,3117
2.355,1.302,3117
2.356,1.492,3117
2.357,1.508,3117
2.358,1.327,3117
2.359,0.953,3123
2.360,-0.140,3123
2.361,-0.608,3123
2.362,-1.173,3123
2.363,-1.683,3123
2.364,-2.047,3123
2.365,-2.217,3123
2.366,-2.217,3123
2.367,-2.027,3123
2.368,-1.673,3117
2.369,-1.183,3117
2.370,-0.672,3117
2.371,-0.130,3117
2.372,0.427,3117
2.373,0.927,3117
2.374,1.305,3117
2.375,1.482,3117
2.376,1.488,3117
2.377,1.302,3117
2.378,0.932,3128
2.379,0.458,3128
2.380,-0.708,3128
2.381,-1.235,3128
2.382,-1.690,3128
2.383,-2.053,3128
2.384,-2.225,3128
2.385,-2.245,3128
2.386,-2.053,3128
2.387,-1.698,3106
2.388,-1.202,3106
2.389,-0.693,3106
2.390,-0.138,3106
2.391,0.417,3106
2.392,0.917,3106
2.393,1.298,3106
2.394,1.482,3106
2.395,1.490,3106
2.396,1.300,3106
2.397,0.940,3112
2.398,0.460,3112
2.399,-0.058,3112
2.400,-1.255,3112
2.401,-1.673,3112
2.402,-2.033,3112
2.403,-2.217,3112
2.404,-2.217,3112
2.405,-2.033,3112
2.406,-1.683,3110
2.407,-1.188,3110
2.408,-0.682,3110
2.409,-0.138,3110
2.410,0.417,3110
2.411,0.920,3110
2.412,1.302,3110
2.413,1.478,3110
2.414,1.492,3110
2.415,1.300,3110
2.416,0.938,3110
2.417,0.448,3110
2.418,-0.072,3110
2.419,-0.618,3110
2.420,-1.745,3110
2.421,-2.033,3110
2.422,-2.212,3110
2.423,-2.217,3110
2.424,-2.042,3110
2.425,-1.698,3117
2.426,-1.212,3117
2.427,-0.703,3117
2.428,-0.163,3117
2.429,0.412,3117
2.430,0.917,3117
2.431,1.305,3117
2.432,1.495,3117
2.433,1.510,3117
2.434,1.325,3117
2.435,0.973,3113
2.436,0.477,3113
2.437,-0.028,3113
2.438,-0.568,3113
2.439,-1.123,3113
2.440,-2.025,3113
2.441,-2.165,3113
2.442,-2.167,3113
2.443,-1.982,3113
2.444,-1.613,3117
2.445,-1.143,3117
2.446,-0.625,3117
2.447,-0.092,3117
2.448,0.458,3117
2.449,0.955,3117
2.450,1.347,3117
2.451,1.518,3117
2.452,1.525,3117
2.453,1.333,3117
2.454,0.958,3122
2.455,0.477,3122
2.456,-0.030,3122
2.457,-0.573,3122
2.458,-1.130,3122
2.459,-1.627,3122
2.460,-2.188,3122
2.461,-2.185,3122
2.462,-2.005,3122
2.463,-1.657,3124
2.464,-1.183,3124
2.465,-0.672,3124
2.466,-0.133,3124
2.467,0.412,3124
2.468,0.912,3124
2.469,1.272,3124
2.470,1.468,3124
2.471,1.468,3124
2.472,1.268,3124
2.473,0.917,3117
2.474,0.438,3117
2.475,-0.072,3117
2.476,-0.618,3117
2.477,-1.175,3117
2.478,-1.688,3117
2.479,-2.042,3117
2.480,-2.208,3117
2.481,-2.047,3117
2.482,-1.690,3088
2.483,-1.190,3088
2.484,-0.682,3088
2.485,-0.135,3088
2.486,0.422,3088
2.487,0.938,3088
2.488,1.312,3088
2.489,1.495,3088
2.490,1.492,3088
2.491,1.300,3088
2.492,0.932,3136
2.493,0.438,3136
2.494,-0.072,3136
2.495,-0.615,3136
2.496,-1.175,3136
2.497,-1.690,3136
2.498,-2.047,3136
2.499,-2.228,3136
2.500,-2.020,3136
2.501,-1.653,3095
2.502,-1.212,3095
2.503,-0.710,3095
2.504,-0.170,3095
2.505,0.390,3095
2.506,0.897,3095
2.507,1.270,3095
2.508,1.482,3095
2.509,1.492,3095
2.510,1.323,3095
2.511,0.960,3142
2.512,0.500,3142
2.513,-0.018,3142
2.514,-0.562,3142
2.515,-1.123,3142
2.516,-1.645,3142
2.517,-2.013,3142
2.518,-2.192,3142
2.519,-2.212,3142
2.520,-1.625,3128
2.521,-0.708,3128
2.522,-0.182,3128
2.523,0.378,3128
2.524,0.875,3128
2.525,1.248,3128
2.526,1.427,3128
2.527,1.455,3128
2.528,1.258,3128
2.529,0.912,3137
2.530,0.432,3137
2.531,-0.083,3137
2.532,-0.623,3137
2.533,-1.175,3137
2.534,-1.673,3137
2.535,-2.027,3137
2.536,-2.212,3137
2.537,-2.210,3137
2.538,-2.022,3137
2.539,-1.670,3112
2.540,-0.560,3112
2.541,-0.130,3112
2.542,0.398,3112
2.543,0.897,3112
2.544,1.262,3112
2.545,1.460,3112
2.546,1.458,3112
2.547,1.260,3112
2.548,0.927,3141
2.549,0.440,3141
2.550,-0.083,3141
2.551,-0.613,3141
2.552,-1.170,3141
2.553,-1.663,3141
2.554,-2.022,3141
2.555,-2.195,3141
2.556,-2.208,3141
2.557,-2.013,3141
2.558,-1.667,3130
2.559,-1.190,3130
2.560,-0.062,3130
2.561,0.422,3130
2.562,0.897,3130
2.563,1.258,3130
2.564,1.458,3130
2.565,1.468,3130
2.566,1.295,3130
2.567,0.935,3125
2.568,0.450,3125
2.569,-0.060,3125
2.570,-0.593,3125
2.571,-1.143,3125
2.572,-1.647,3125
2.573,-2.007,3125
2.574,-2.183,3125
2.575,-2.190,3125
2.576,-2.007,3125
2.577,-1.663,3133
2.578,-1.183,3133
2.579,-0.665,3133
2.580,0.512,3133
2.581,0.917,3133
2.582,1.302,3133
2.583,1.485,3133
2.584,1.495,3133
2.585,1.315,3133
2.586,0.948,3112
2.587,0.465,3112
2.588,-0.043,3112
2.589,-0.583,3112
2.590,-1.137,3112
2.591,-1.647,3112
2.592,-2.007,3112
2.593,-2.180,3112
2.594,-2.185,3112
2.595,-1.992,3112
2.596,-1.653,3116
2.597,-1.177,3116
2.598,-0.672,3116
2.599,-0.138,3116
2.600,0.978,3116
2.601,1.298,3116
2.602,1.465,3116
2.603,1.470,3116
2.604,1.298,3116
2.605,0.940,3111
2.606,0.453,3111
2.607,-0.052,3111
2.608,-0.583,3111
2.609,-1.145,3111
2.610,-1.653,3111
2.611,-2.010,3111
2.612,-2.188,3111
2.613,-2.190,3111
2.614,-2.002,3111
2.615,-1.653,3111
2.616,-1.188,3117
2.617,-0.670,3117
2.618,-0.130,3117
2.619,0.422,3117
2.620,1.327,3117
2.621,1.465,3117
2.622,1.470,3117
2.623,1.300,3117
2.624,0.935,3117
2.625,0.468,3106
2.626,-0.062,3106
2.627,-0.595,3106
2.628,-1.147,3106
2.629,-1.663,3106
2.630,-2.027,3106
2.631,-2.203,3106
2.632,-2.205,3106
2.633,-2.007,3106
2.634,-1.663,3106
2.635,-1.185,3129
2.636,-0.670,3129
2.637,-0.138,3129
2.638,0.398,3129
2.639,0.917,3129
2.640,1.452,3129
2.641,1.458,3129
2.642,1.262,3129
2.643,0.910,3129
2.644,0.430,3111
2.645,-0.087,3111
2.646,-0.608,3111
2.647,-1.150,3111
2.648,-1.645,3111
2.649,-1.990,3111
2.650,-2.167,3111
2.651,-2.167,3111
2.652,-1.982,3111
2.653,-1.643,3111
2.654,-1.175,3110
2.655,-0.662,3110
2.656,-0.133,3110
2.657,0.415,3110
2.658,0.912,3110
2.659,1.268,3110
2.660,1.438,3110
2.661,1.240,3110
2.662,0.907,3110
2.663,0.453,3116
2.664,-0.072,3116
2.665,-0.613,3116
2.666,-1.163,3116
2.667,-1.665,3116
2.668,-2.027,3116
2.669,-2.192,3116
2.670,-2.203,3116
2.671,-2.013,3116
2.672,-1.657,3116
2.673,-1.177,3109
2.674,-0.657,3109
2.675,-0.107,3109
2.676,0.432,3109
2.677,0.935,3109
2.678,1.312,3109
2.679,1.488,3109
2.680,1.248,3109
2.681,0.938,3109
2.682,0.463,3134
2.683,-0.062,3134
2.684,-0.593,3134
2.685,-1.153,3134
2.686,-1.665,3134
2.687,-2.022,3134
2.688,-2.205,3134
2.689,-2.217,3134
2.690,-2.033,3134
2.691,-1.698,3134
2.692,-1.220,3117
2.693,-0.703,3117
2.694,-0.172,3117
2.695,0.388,3117
2.696,0.897,3117
2.697,1.260,3117
2.698,1.462,3117
2.699,1.485,3117
2.700,0.890,3117
2.701,0.458,3072
2.702,-0.052,3072
2.703,-0.580,3072
2.704,-1.130,3072
2.705,-1.627,3072
2.706,-1.988,3072
2.707,-2.170,3072
2.708,-2.172,3072
2.709,-1.985,3072
2.710,-1.647,3072
2.711,-1.173,3147
2.712,-0.657,3147
2.713,-0.128,3147
2.714,0.417,3147
2.715,0.915,3147
2.716,1.270,3147
2.717,1.460,3147
2.718,1.468,3147
2.719,1.258,3147
2.720,0.347,3118
2.721,-0.620,3118
2.722,-1.167,3118
2.723,-1.665,3118
2.724,-2.022,3118
2.725,-2.203,3118
2.726,-2.220,3118
2.727,-2.035,3118
2.728,-1.698,3118
2.729,-1.232,3132
2.730,-0.715,3132
2.731,-0.182,3132
2.732,0.383,3132
2.733,0.887,3132
2.734,1.258,3132
2.735,1.470,3132
2.736,1.472,3132
2.737,1.272,3132
2.738,0.932,3132
2.739,0.458,3119
2.740,-0.823,3119
2.741,-1.688,3119
2.742,-2.013,3119
2.743,-2.188,3119
2.744,-2.188,3119
2.745,-2.002,3119
2.746,-1.653,3119
2.747,-1.177,3134
2.748,-0.652,3134
2.749,-0.122,3134
2.750,0.427,3134
2.751,0.917,3134
2.752,1.298,3134
2.753,1.462,3134
2.754,1.462,3134
2.755,1.252,3134
2.756,0.897,3134
2.757,0.430,3120
2.758,-0.092,3120
2.759,-0.620,3120
2.760,-1.738,3120
2.761,-2.042,3120
2.762,-2.192,3120
2.763,-2.192,3120
2.764,-2.002,3120
2.765,-1.653,3120
2.766,-1.173,3134
2.767,-0.652,3134
2.768,-0.107,3134
2.769,0.422,3134
2.770,0.917,3134
2.771,1.298,3134
2.772,1.475,3134
2.773,1.488,3134
2.774,1.302,3134
2.775,0.938,3134
2.776,0.472,3129
2.777,-0.050,3129
2.778,-0.588,3129
2.779,-1.137,3129
2.780,-2.047,3129
2.781,-2.188,3129
2.782,-2.195,3129
2.783,-2.015,3129
2.784,-1.665,3129
2.785,-1.183,3139
2.786,-0.672,3139
2.787,-0.145,3139
2.788,0.398,3139
2.789,0.887,3139
2.790,1.235,3139
2.791,1.427,3139
2.792,1.438,3139
2.793,1.235,3139
2.794,0.890,3139
2.795,0.427,3123
2.796,-0.102,3123
2.797,-0.647,3123
2.798,-1.185,3123
2.799,-1.688,3123
2.800,-2.217,3123
2.801,-2.205,3123
2.802,-2.013,3123
2.803,-1.660,3123
2.804,-1.180,3136
2.805,-0.657,3136
2.806,-0.133,3136
2.807,0.420,3136
2.808,0.912,3136
2.809,1.272,3136
2.810,1.468,3136
2.811,1.478,3136
2.812,1.298,3136
2.813,0.932,3136
2.814,0.468,3134
2.815,-0.062,3134
2.816,-0.593,3134
2.817,-1.163,3134
2.818,-1.663,3134
2.819,-2.025,3134
2.820,-2.190,3134
2.821,-2.022,3134
2.822,-1.667,3134
2.823,-1.200,3129
2.824,-0.682,3129
2.825,-0.147,3129
2.826,0.412,3129
2.827,0.907,3129
2.828,1.272,3129
2.829,1.478,3129
2.830,1.492,3129
2.831,1.302,3129
2.832,0.917,3129
2.833,0.470,3118
2.834,-0.062,3118
2.835,-0.608,3118
2.836,-1.163,3118
2.837,-1.663,3118
2.838,-2.033,3118
2.839,-2.205,3118
2.840,-1.988,3118
2.841,-1.683,3118
2.842,-1.205,3119
2.843,-0.682,3119
2.844,-0.142,3119
2.845,0.407,3119
2.846,0.900,3119
2.847,1.260,3119
2.848,1.462,3119
2.849,1.468,3119
2.850,1.265,3119
2.851,0.917,3119
2.852,0.458,3087
2.853,-0.070,3087
2.854,-0.608,3087
2.855,-1.163,3087
2.856,-1.657,3087
2.857,-2.010,3087
2.858,-2.185,3087
2.859,-2.188,3087
2.860,-1.620,3087
2.861,-1.167,3116
2.862,-0.682,3116
2.863,-0.163,3116
2.864,0.385,3116
2.865,0.890,3116
2.866,1.258,3116
2.867,1.438,3116
2.868,1.460,3116
2.869,1.262,3116
2.870,0.920,3116
2.871,0.453,3116
2.872,-0.065,3117
2.873,-0.613,3117
2.874,-1.165,3117
2.875,-1.663,3117
2.876,-2.027,3117
2.877,-2.210,3117
2.878,-2.217,3117
2.879,-2.042,3117
2.880,-1.133,3118
2.881,-0.147,3118
2.882,0.395,3118
2.883,0.897,3118
2.884,1.262,3118
2.885,1.460,3118
2.886,1.468,3118
2.887,1.268,3118
2.888,0.930,3118
2.889,0.455,3118
2.890,-0.058,3140
2.891,-0.608,3140
2.892,-1.147,3140
2.893,-1.647,3140
2.894,-2.007,3140
2.895,-2.183,3140
2.896,-2.195,3140
2.897,-2.018,3140
2.898,-1.667,3140
2.899,-1.205,3140
2.900,-0.052,3122
2.901,0.940,3122
2.902,1.298,3122
2.903,1.470,3122
2.904,1.478,3122
2.905,1.295,3122
2.906,0.932,3122
2.907,0.463,3122
2.908,-0.065,3120
2.909,-0.620,3120
2.910,-1.173,3120
2.911,-1.667,3120
2.912,-2.022,3120
2.913,-2.203,3120
2.914,-2.195,3120
2.915,-2.013,3120
2.916,-1.667,3120
2.917,-1.202,3120
2.918,-0.690,3101
2.919,-0.142,3101
2.920,0.958,3101
2.921,1.252,3101
2.922,1.448,3101
2.923,1.458,3101
2.924,1.255,3101
2.925,0.907,3101
2.926,0.438,3101
2.927,-0.105,3118
2.928,-0.650,3118
2.929,-1.183,3118
2.930,-1.690,3118
2.931,-2.047,3118
2.932,-2.217,3118
2.933,-2.212,3118
2.934,-2.025,3118
2.935,-1.683,3118
2.936,-1.208,3118
2.937,-0.703,3123
2.938,-0.168,3123
2.939,0.388,3123
2.940,1.323,3123
2.941,1.423,3123
2.942,1.433,3123
2.943,1.238,3123
2.944,0.907,3123
2.945,0.450,3123
2.946,-0.060,3121
2.947,-0.613,3121
2.948,-1.153,3121
2.949,-1.650,3121
2.950,-2.007,3121
2.951,-2.178,3121
2.952,-2.183,3121
2.953,-2.002,3121
2.954,-1.653,3121
2.955,-1.177,3121
2.956,-0.665,3112
2.957,-0.110,3112
2.958,0.420,3112
2.959,0.917,3112
2.960,1.485,3112
2.961,1.465,3112
2.962,1.258,3112
2.963,0.912,3112
2.964,0.422,3112
2.965,-0.068,3113
2.966,-0.627,3113
2.967,-1.137,3113
2.968,-1.667,3113
2.969,-1.992,3113
2.970,-2.130,3113
2.971,-2.147,3113
2.972,-1.925,3113
2.973,-1.603,3113
2.974,-1.160,3113
2.975,-0.652,3124
2.976,-0.113,3124
2.977,0.422,3124
2.978,0.912,3124
2.979,1.272,3124
2.980,1.423,3124
2.981,1.250,3124
2.982,0.912,3124
2.983,0.450,3124
2.984,-0.068,3130
2.985,-0.640,3130
2.986,-1.192,3130
2.987,-1.653,3130
2.988,-2.007,3130
2.989,-2.188,3130
2.990,-2.210,3130
2.991,-2.018,3130
2.992,-1.683,3130
2.993,-1.210,3130
2.994,-0.695,3120
2.995,-0.147,3120
2.996,0.407,3120
2.997,0.902,3120
2.998,1.258,3120
2.999,1.438,3120
3.000,1.218,3120
3.001,0.910,3120
3.002,0.450,3120
3.003,-0.070,3146
3.004,-0.620,3146
3.005,-1.167,3146
3.006,-1.663,3146
3.007,-2.022,3146
3.008,-2.197,3146
3.009,-2.203,3146
3.010,-2.018,3146
3.011,-1.673,3146
3.012,-1.210,3146
3.013,-0.698,3148
3.014,-0.163,3148
3.015,0.383,3148
3.016,0.873,3148
3.017,1.232,3148
3.018,1.427,3148
3.019,1.430,3148
3.020,0.828,3148
3.021,0.450,3148
3.022,-0.105,3130
3.023,-1.238,3130
3.024,-1.708,3130
3.025,-2.042,3130
3.026,-2.192,3130
3.027,-2.203,3130
3.028,-2.018,3130
3.029,-1.663,3130
3.030,-1.177,3130
3.031,-0.682,3119
3.032,-0.130,3119
3.033,0.422,3119
3.034,0.912,3119
3.035,1.298,3119
3.036,1.472,3119
3.037,1.488,3119
3.038,1.295,3119
3.039,0.927,3119
3.040,-0.138,3129
3.041,-1.153,3129
3.042,-1.657,3129
3.043,-2.002,3129
3.044,-2.167,3129
3.045,-2.172,3129
3.046,-1.978,3129
3.047,-1.643,3129
3.048,-1.173,3129
3.049,-0.660,3127
3.050,-0.115,3127
3.051,0.420,3127
3.052,0.912,3127
3.053,1.260,3127
3.054,1.458,3127
3.055,1.452,3127
3.056,1.248,3127
3.057,0.892,3127
3.058,0.427,3127
3.059,-0.090,3125
3.060,-1.310,3125
3.061,-1.685,3125
3.062,-2.033,3125
3.063,-2.212,3125
3.064,-2.217,3125
3.065,-2.022,3125
3.066,-1.673,3125
3.067,-1.202,3125
3.068,-0.688,3135
3.069,-0.128,3135
3.070,0.417,3135
3.071,0.907,3135
3.072,1.268,3135
3.073,1.465,3135
3.074,1.478,3135
3.075,1.298,3135
3.076,0.938,3135
3.077,0.472,3135
3.078,-0.048,3140
3.079,-0.605,3140
3.080,-1.722,3140
3.081,-2.007,3140
3.082,-2.178,3140
3.083,-2.180,3140
3.084,-1.990,3140
3.085,-1.647,3140
3.086,-1.173,3140
3.087,-0.662,3139
3.088,-0.128,3139
3.089,0.412,3139
3.090,0.907,3139
3.091,1.262,3139
3.092,1.452,3139
3.093,1.458,3139
3.094,1.260,3139
3.095,0.907,3139
3.096,0.448,3139
3.097,-0.070,3101
3.098,-0.647,3101
3.099,-1.167,3101
3.100,-2.058,3101
3.101,-2.190,3101
3.102,-2.188,3101
3.103,-2.007,3101
3.104,-1.657,3101
3.105,-1.183,3101
3.106,-0.667,3123
3.107,-0.122,3123
3.108,0.412,3123
3.109,0.902,3123
3.110,1.262,3123
3.111,1.438,3123
3.112,1.448,3123
3.113,1.238,3123
3.114,0.892,3123
3.115,0.427,3123
3.116,-0.092,3115
3.117,-0.652,3115
3.118,-1.192,3115
3.119,-1.702,3115
3.120,-2.252,3115
3.121,-2.243,3115
3.122,-2.030,3115
3.123,-1.673,3115
3.124,-1.190,3115
3.125,-0.667,3115
3.126,-0.133,3128
3.127,0.425,3128
3.128,0.912,3128
3.129,1.268,3128
3.130,1.452,3128
3.131,1.458,3128
3.132,1.255,3128
3.133,0.900,3128
3.134,0.427,3128
3.135,-0.098,3128
3.136,-0.657,3115
3.137,-1.210,3115
3.138,-1.692,3115
3.139,-2.033,3115
3.140,-2.183,3115
3.141,-2.010,3115
3.142,-1.657,3115
3.143,-1.177,3115
3.144,-0.667,3115
3.145,-0.128,3112
3.146,0.427,3112
3.147,0.907,3112
3.148,1.258,3112
3.149,1.433,3112
3.150,1.430,3112
3.151,1.232,3112
3.152,0.873,3112
3.153,0.422,3112
3.154,-0.098,3112
3.155,-0.647,3113
3.156,-1.202,3113
3.157,-1.688,3113
3.158,-2.027,3113
3.159,-2.192,3113
3.160,-1.978,3113
3.161,-1.653,3113
3.162,-1.202,3113
3.163,-0.688,3113
3.164,-0.163,3109
3.165,0.398,3109
3.166,0.873,3109
3.167,1.228,3109
3.168,1.417,3109
3.169,1.427,3109
3.170,1.232,3109
3.171,0.887,3109
3.172,0.417,3109
3.173,-0.095,3109
3.174,-0.642,3106
3.175,-1.192,3106
3.176,-1.683,3106
3.177,-2.030,3106
3.178,-2.203,3106
3.179,-2.203,3106
3.180,-1.580,3106
3.181,-1.177,3106
3.182,-0.667,3106
3.183,-0.115,3101
3.184,0.438,3101
3.185,0.912,3101
3.186,1.268,3101
3.187,1.462,3101
3.188,1.472,3101
3.189,1.268,3101
3.190,0.930,3101
3.191,0.460,3101
3.192,-0.055,3101
3.193,-0.595,3092
3.194,-1.167,3092
3.195,-1.647,3092
3.196,-2.002,3092
3.197,-2.178,3092
3.198,-2.178,3092
3.199,-1.927,3092
3.200,-1.093,3092
3.201,-0.570,3092
3.202,-0.102,3115
3.203,0.453,3115
3.204,0.940,3115
3.205,1.302,3115
3.206,1.478,3115
3.207,1.488,3115
3.208,1.268,3115
3.209,0.917,3115
3.210,0.450,3115
3.211,-0.062,3115
3.212,-0.613,3111
3.213,-1.177,3111
3.214,-1.670,3111
3.215,-2.022,3111
3.216,-2.197,3111
3.217,-2.190,3111
3.218,-1.975,3111
3.219,-1.657,3111
3.220,-0.588,3111
3.221,-0.133,3122
3.222,0.427,3122
3.223,0.930,3122
3.224,1.298,3122
3.225,1.470,3122
3.226,1.472,3122
3.227,1.272,3122
3.228,0.915,3122
3.229,0.438,3122
3.230,-0.085,3122
3.231,-0.642,3114
3.232,-1.205,3114
3.233,-1.698,3114
3.234,-2.058,3114
3.235,-2.243,3114
3.236,-2.255,3114
3.237,-2.053,3114
3.238,-1.702,3114
3.239,-1.222,3114
3.240,-0.085,3127
3.241,0.873,3127
3.242,1.230,3127
3.243,1.423,3127
3.244,1.427,3127
3.245,1.235,3127
3.246,0.887,3127
3.247,0.430,3127
3.248,-0.083,3127
3.249,-0.625,3112
3.250,-1.188,3112
3.251,-1.688,3112
3.252,-2.033,3112
3.253,-2.212,3112
3.254,-2.208,3112
3.255,-2.022,3112
3.256,-1.673,3112
3.257,-1.208,3112
3.258,-0.698,3112
3.259,-0.168,3144
3.260,0.943,3144
3.261,1.232,3144
3.262,1.420,3144
3.263,1.423,3144
3.264,1.228,3144
3.265,0.877,3144
3.266,0.412,3144
3.267,-0.100,3144
3.268,-0.647,3144
3.269,-1.202,3144
3.270,-1.688,3144
3.271,-2.027,3144
3.272,-2.190,3144
3.273,-2.188,3144
3.274,-1.988,3144
3.275,-1.647,3144
3.276,-1.167,3144
3.277,-0.657,3144
3.278,-0.113,3126
3.279,0.448,3126
3.280,1.325,3126
3.281,1.462,3126
3.282,1.458,3126
3.283,1.208,3126
3.284,0.897,3126
3.285,0.432,3126
3.286,-0.133,3126
3.287,-0.613,3136
3.288,-1.175,3136
3.289,-1.663,3136
3.290,-2.022,3136
3.291,-2.188,3136
3.292,-2.203,3136
3.293,-2.007,3136
3.294,-1.653,3136
3.295,-1.177,3136
3.296,-0.667,3136
3.297,-0.115,3127
3.298,0.425,3127
3.299,0.907,3127
3.300,1.427,3127
3.301,1.407,3127
3.302,1.220,3127
3.303,0.877,3127
3.304,0.420,3127
3.305,-0.090,3127
3.306,-0.623,3127
3.307,-1.190,3127
3.308,-1.673,3127
3.309,-2.013,3127
3.310,-2.183,3127
3.311,-2.175,3127
3.312,-1.988,3127
3.313,-1.643,3127
3.314,-1.167,3127
3.315,-0.620,3127
3.316,-0.102,3137
3.317,0.440,3137
3.318,0.927,3137
3.319,1.270,3137
3.320,1.188,3137
3.321,0.885,3137
3.322,0.417,3137
3.323,-0.098,3137
3.324,-0.650,3130
3.325,-1.208,3130
3.326,-1.698,3130
3.327,-2.050,3130
3.328,-2.212,3130
3.329,-2.217,3130
3.330,-2.022,3130
3.331,-1.670,3130
3.332,-1.192,3130
3.333,-0.682,3130
3.334,-0.133,3126
3.335,0.432,3126
3.336,0.912,3126
3.337,1.268,3126
3.338,1.452,3126
3.339,1.458,3126
3.340,0.820,3126
3.341,0.390,3126
3.342,-0.100,3126
3.343,-0.655,3119
3.344,-1.220,3119
3.345,-1.700,3119
3.346,-2.045,3119
3.347,-2.217,3119
3.348,-2.217,3119
3.349,-2.025,3119
3.350,-1.667,3119
3.351,-1.202,3119
3.352,-0.682,3119
3.353,-0.138,3116
3.354,0.422,3116
3.355,0.907,3116
3.356,1.260,3116
3.357,1.438,3116
3.358,1.450,3116
3.359,1.232,3116
3.360,0.333,3116
3.361,-0.100,3116
3.362,-0.655,3132
3.363,-1.212,3132
3.364,-1.708,3132
3.365,-2.042,3132
3.366,-2.212,3132
3.367,-2.197,3132
3.368,-1.992,3132
3.369,-1.647,3132
3.370,-1.167,3132
3.371,-0.645,3132
3.372,-0.102,3132
3.373,0.438,3121
3.374,0.935,3121
3.375,1.268,3121
3.376,1.455,3121
3.377,1.452,3121
3.378,1.242,3121
3.379,0.892,3121
3.380,-0.182,3121
3.381,-0.642,3121
3.382,-1.188,3104
3.383,-1.700,3104
3.384,-2.033,3104
3.385,-2.197,3104
3.386,-2.192,3104
3.387,-2.002,3104
3.388,-1.650,3104
3.389,-1.173,3104
3.390,-0.657,3104
3.391,-0.107,3104
3.392,0.432,3107
3.393,0.938,3107
3.394,1.268,3107
3.395,1.458,3107
3.396,1.452,3107
3.397,1.238,3107
3.398,0.892,3107
3.399,0.420,3107
3.400,-0.733,3108
3.401,-1.700,3108
3.402,-2.042,3108
3.403,-2.215,3108
3.404,-2.212,3108
3.405,-2.018,3108
3.406,-1.660,3108
3.407,-1.183,3108
3.408,-0.657,3108
3.409,-0.122,3108
3.410,0.468,3126
3.411,0.938,3126
3.412,1.298,3126
3.413,1.462,3126
3.414,1.462,3126
3.415,1.258,3126
3.416,0.885,3126
3.417,0.432,3126
3.418,-0.087,3126
3.419,-0.647,3126
3.420,-1.762,3107
3.421,-2.208,3107
3.422,-2.212,3107
3.423,-2.015,3107
3.424,-1.670,3107
3.425,-1.202,3107
3.426,-0.693,3107
3.427,-0.165,3107
3.428,0.393,3122
3.429,0.892,3122
3.430,1.235,3122
3.431,1.413,3122
3.432,1.417,3122
3.433,1.218,3122
3.434,0.873,3122
3.435,0.407,3122
3.436,-0.095,3122
3.437,-0.642,3122
3.438,-1.200,3120
3.439,-1.698,3120
3.440,-2.203,3120
3.441,-2.188,3120
3.442,-1.988,3120
3.443,-1.627,3120
3.444,-1.147,3120
3.445,-0.623,3120
3.446,-0.092,3120
3.447,0.453,3126
3.448,0.948,3126
3.449,1.298,3126
3.450,1.462,3126
3.451,1.450,3126
3.452,1.228,3126
3.453,0.863,3126
3.454,0.383,3126
3.455,-0.133,3126
3.456,-0.688,3126
3.457,-1.228,3118
3.458,-1.712,3118
3.459,-2.047,3118
3.460,-2.167,3118
3.461,-1.988,3118
3.462,-1.627,3118
3.463,-1.147,3118
3.464,-0.620,3118
3.465,-0.090,3118
3.466,0.458,3118
3.467,0.948,3118
3.468,1.308,3118
3.469,1.468,3118
3.470,1.468,3118
3.471,1.258,3118
3.472,0.892,3118
3.473,0.422,3118
3.474,-0.102,3118
3.475,-0.657,3118
3.476,-1.218,3121
3.477,-1.722,3121
3.478,-2.055,3121
3.479,-2.220,3121
3.480,-1.972,3121
3.481,-1.660,3121
3.482,-1.183,3121
3.483,-0.680,3121
3.484,-0.133,3121
3.485,0.410,3138
3.486,0.907,3138
3.487,1.250,3138
3.488,1.433,3138
3.489,1.438,3138
3.490,1.232,3138
3.491,0.890,3138
3.492,0.417,3138
3.493,-0.110,3138
3.494,-0.662,3138
3.495,-1.215,3098
3.496,-1.725,3098
3.497,-2.062,3098
3.498,-2.230,3098
3.499,-2.223,3098
3.500,-1.585,3098
3.501,-1.160,3098
3.502,-0.660,3098
3.503,-0.113,3098
3.504,0.438,3122
3.505,0.943,3122
3.506,1.272,3122
3.507,1.462,3122
3.508,1.440,3122
3.509,1.232,3122
3.510,0.873,3122
3.511,0.395,3122
3.512,-0.130,3122
3.513,-0.703,3122
3.514,-1.248,3140
3.515,-1.768,3140
3.516,-2.103,3140
3.517,-2.263,3140
3.518,-2.252,3140
3.519,-2.047,3140
3.520,-1.133,3140
3.521,-0.690,3140
3.522,-0.147,3140
3.523,0.412,3147
3.524,0.927,3147
3.525,1.292,3147
3.526,1.468,3147
3.527,1.470,3147
3.528,1.262,3147
3.529,0.907,3147
3.530,0.430,3147
3.531,-0.083,3147
3.532,-0.627,3147
3.533,-1.177,3135
3.534,-1.683,3135
3.535,-2.018,3135
3.536,-2.183,3135
3.537,-2.180,3135
3.538,-1.988,3135
3.539,-1.643,3135
3.540,-0.568,3135
3.541,-0.062,3135
3.542,0.460,3136
3.543,0.945,3136
3.544,1.312,3136
3.545,1.475,3136
3.546,1.472,3136
3.547,1.258,3136
3.548,0.890,3136
3.549,0.420,3136
3.550,-0.107,3136
3.551,-0.660,3136
3.552,-1.212,3137
3.553,-1.708,3137
3.554,-2.062,3137
3.555,-2.225,3137
3.556,-2.223,3137
3.557,-2.027,3137
3.558,-1.673,3137
3.559,-1.180,3137
3.560,-0.028,3137
3.561,0.432,3131
3.562,0.930,3131
3.563,1.268,3131
3.564,1.458,3131
3.565,1.458,3131
3.566,1.245,3131
3.567,0.887,3131
3.568,0.412,3131
3.569,-0.107,3131
3.570,-0.660,3131
3.571,-1.208,3128
3.572,-1.710,3128
3.573,-2.042,3128
3.574,-2.203,3128
3.575,-2.183,3128
3.576,-1.982,3128
3.577,-1.630,3128
3.578,-1.153,3128
3.579,-0.647,3128
3.580,0.527,3127
3.581,1.258,3127
3.582,1.427,3127
3.583,1.420,3127
3.584,1.218,3127
3.585,0.863,3127
3.586,0.398,3127
3.587,-0.105,3127
3.588,-0.650,3127
3.589,-1.185,3090
3.590,-1.690,3090
3.591,-2.027,3090
3.592,-2.203,3090
3.593,-2.192,3090
3.594,-2.005,3090
3.595,-1.660,3090
3.596,-1.190,3090
3.597,-0.688,3090
3.598,-0.145,3090
3.599,0.398,3115
3.600,1.265,3115
3.601,1.410,3115
3.602,1.415,3115
3.603,1.198,3115
3.604,0.868,3115
3.605,0.398,3115
3.606,-0.102,3115
3.607,-0.650,3115
3.608,-1.188,3118
3.609,-1.698,3118
3.610,-2.013,3118
3.611,-2.172,3118
3.612,-2.167,3118
3.613,-1.970,3118
3.614,-1.615,3118
3.615,-1.137,3118
3.616,-0.620,3118
3.617,-0.087,3118
3.618,0.458,3114
3.619,0.938,3114
3.620,1.460,3114
3.621,1.427,3114
3.622,1.218,3114
3.623,0.873,3114
3.624,0.407,3114
3.625,-0.113,3114
3.626,-0.660,3114
3.627,-1.202,3114
3.628,-1.692,3104
3.629,-2.035,3104
3.630,-2.190,3104
3.631,-2.180,3104
3.632,-1.980,3104
3.633,-1.623,3104
3.634,-1.143,3104
3.635,-0.627,3104
3.636,-0.095,3104
3.637,0.463,3104
3.638,0.932,3116
3.639,1.298,3116
3.640,1.423,3116
3.641,1.248,3116
3.642,0.892,3116
3.643,0.417,3116
3.644,-0.098,3116
3.645,-0.647,3116
3.646,-1.202,3116
3.647,-1.700,3122
3.648,-2.047,3122
3.649,-2.205,3122
3.650,-2.192,3122
3.651,-1.992,3122
3.652,-1.643,3122
3.653,-1.163,3122
3.654,-0.652,3122
3.655,-0.105,3122
3.656,0.432,3122
3.657,0.927,3124
3.658,1.272,3124
3.659,1.458,3124
