Czas(s),EKG_Surowe(mV)
0.000,-0.100
0.001,-0.085
0.002,-0.071
0.003,-0.069
0.004,-0.071
0.005,-0.083
0.006,-0.096
0.007,-0.116
0.008,-0.136
0.009,-0.161
0.010,-0.171
0.011,-0.189
0.012,-0.191
0.013,-0.190
0.014,-0.181
0.015,-0.165
0.016,-0.145
0.017,-0.121
0.018,-0.096
0.019,-0.070
0.020,-0.014
0.021,-0.011
0.022,-0.005
0.023,-0.011
0.024,-0.031
0.025,-0.054
0.026,-0.085
0.027,-0.114
0.028,-0.144
0.029,-0.168
0.030,-0.184
0.031,-0.190
0.032,-0.191
0.033,-0.181
0.034,-0.174
0.035,-0.161
0.036,-0.149
0.037,-0.131
0.038,-0.122
0.039,-0.111
0.040,-0.111
0.041,-0.114
0.042,-0.130
0.043,-0.151
0.044,-0.185
0.045,-0.226
0.046,-0.274
0.047,-0.314
0.048,-0.351
0.049,-0.384
0.050,-0.404
0.051,-0.412
0.052,-0.405
0.053,-0.379
0.054,-0.346
0.055,-0.306
0.056,-0.269
0.057,-0.221
0.058,-0.188
0.059,-0.163
0.060,-0.138
0.061,-0.145
0.062,-0.166
0.063,-0.191
0.064,-0.216
0.065,-0.254
0.066,-0.286
0.067,-0.314
0.068,-0.340
0.069,-0.350
0.070,-0.356
0.071,-0.351
0.072,-0.340
0.073,-0.324
0.074,-0.294
0.075,-0.266
0.076,-0.242
0.077,-0.215
0.078,-0.196
0.079,-0.184
0.080,-0.181
0.081,-0.196
0.082,-0.216
0.083,-0.251
0.084,-0.276
0.085,-0.329
0.086,-0.344
0.087,-0.364
0.088,-0.371
0.089,-0.369
0.090,-0.364
0.091,-0.355
0.092,-0.341
0.093,-0.310
0.094,-0.294
0.095,-0.269
0.096,-0.249
0.097,-0.229
0.098,-0.224
0.099,-0.230
0.100,-0.274
0.101,-0.296
0.102,-0.326
0.103,-0.346
0.104,-0.369
0.105,-0.393
0.106,-0.406
0.107,-0.406
0.108,-0.386
0.109,-0.367
0.110,-0.341
0.111,-0.301
0.112,-0.271
0.113,-0.246
0.114,-0.228
0.115,-0.211
0.116,-0.209
0.117,-0.214
0.118,-0.234
0.119,-0.256
0.120,-0.309
0.121,-0.374
0.122,-0.403
0.123,-0.421
0.124,-0.424
0.125,-0.416
0.126,-0.410
0.127,-0.390
0.128,-0.369
0.129,-0.349
0.130,-0.334
0.131,-0.311
0.132,-0.301
0.133,-0.294
0.134,-0.291
0.135,-0.294
0.136,-0.309
0.137,-0.326
0.138,-0.336
0.139,-0.346
0.140,-0.334
0.141,-0.311
0.142,-0.271
0.143,-0.224
0.144,-0.149
0.145,-0.061
0.146,0.044
0.147,0.151
0.148,0.276
0.149,0.399
0.150,0.536
0.151,0.675
0.152,0.796
0.153,0.929
0.154,1.056
0.155,1.176
0.156,1.308
0.157,1.438
0.158,1.571
0.159,1.689
0.160,1.884
0.161,1.910
0.162,1.933
0.163,1.910
0.164,1.854
0.165,1.771
0.166,1.669
0.167,1.554
0.168,1.430
0.169,1.301
0.170,1.164
0.171,1.008
0.172,0.846
0.173,0.675
0.174,0.497
0.175,0.316
0.176,0.149
0.177,-0.021
0.178,-0.169
0.179,-0.291
0.180,-0.489
0.181,-0.537
0.182,-0.581
0.183,-0.604
0.184,-0.609
0.185,-0.594
0.186,-0.583
0.187,-0.564
0.188,-0.546
0.189,-0.526
0.190,-0.509
0.191,-0.504
0.192,-0.504
0.193,-0.511
0.194,-0.529
0.195,-0.544
0.196,-0.556
0.197,-0.566
0.198,-0.573
0.199,-0.573
0.200,-0.549
0.201,-0.529
0.202,-0.491
0.203,-0.449
0.204,-0.421
0.205,-0.374
0.206,-0.336
0.207,-0.326
0.208,-0.334
0.209,-0.345
0.210,-0.351
0.211,-0.371
0.212,-0.401
0.213,-0.434
0.214,-0.466
0.215,-0.504
0.216,-0.526
0.217,-0.544
0.218,-0.555
0.219,-0.551
0.220,-0.529
0.221,-0.501
0.222,-0.482
0.223,-0.444
0.224,-0.415
0.225,-0.388
0.226,-0.367
0.227,-0.351
0.228,-0.340
0.229,-0.341
0.230,-0.352
0.231,-0.369
0.232,-0.390
0.233,-0.415
0.234,-0.441
0.235,-0.464
0.236,-0.481
0.237,-0.481
0.238,-0.469
0.239,-0.454
0.240,-0.410
0.241,-0.381
0.242,-0.351
0.243,-0.326
0.244,-0.296
0.245,-0.289
0.246,-0.276
0.247,-0.285
0.248,-0.297
0.249,-0.321
0.250,-0.345
0.251,-0.367
0.252,-0.391
0.253,-0.414
0.254,-0.431
0.255,-0.436
0.256,-0.441
0.257,-0.430
0.258,-0.415
0.259,-0.393
0.260,-0.324
0.261,-0.294
0.262,-0.268
0.263,-0.245
0.264,-0.230
0.265,-0.226
0.266,-0.230
0.267,-0.241
0.268,-0.255
0.269,-0.289
0.270,-0.311
0.271,-0.344
0.272,-0.365
0.273,-0.389
0.274,-0.405
0.275,-0.411
0.276,-0.414
0.277,-0.414
0.278,-0.393
0.279,-0.324
0.280,-0.349
0.281,-0.256
0.282,-0.245
0.283,-0.233
0.284,-0.231
0.285,-0.249
0.286,-0.269
0.287,-0.291
0.288,-0.324
0.289,-0.349
0.290,-0.369
0.291,-0.383
0.292,-0.389
0.293,-0.391
0.294,-0.386
0.295,-0.376
0.296,-0.356
0.297,-0.334
0.298,-0.296
0.299,-0.256
0.300,-0.186
0.301,-0.152
0.302,-0.141
0.303,-0.135
0.304,-0.149
0.305,-0.174
0.306,-0.204
0.307,-0.226
0.308,-0.256
0.309,-0.284
0.310,-0.305
0.311,-0.325
0.312,-0.333
0.313,-0.335
0.314,-0.331
0.315,-0.321
0.316,-0.297
0.317,-0.274
0.318,-0.245
0.319,-0.214
0.320,-0.163
0.321,-0.146
0.322,-0.144
0.323,-0.141
0.324,-0.146
0.325,-0.168
0.326,-0.181
0.327,-0.204
0.328,-0.216
0.329,-0.234
0.330,-0.254
0.331,-0.263
0.332,-0.261
0.333,-0.251
0.334,-0.231
0.335,-0.211
0.336,-0.188
0.337,-0.164
0.338,-0.136
0.339,-0.125
0.340,-0.121
0.341,-0.124
0.342,-0.129
0.343,-0.144
0.344,-0.169
0.345,-0.191
0.346,-0.214
0.347,-0.246
0.348,-0.254
0.349,-0.266
0.350,-0.264
0.351,-0.251
0.352,-0.231
0.353,-0.206
0.354,-0.174
0.355,-0.134
0.356,-0.101
0.357,-0.069
0.358,-0.049
0.359,-0.034
0.360,-0.045
0.361,-0.056
0.362,-0.083
0.363,-0.106
0.364,-0.133
0.365,-0.165
0.366,-0.191
0.367,-0.209
0.368,-0.224
0.369,-0.226
0.370,-0.228
0.371,-0.209
0.372,-0.186
0.373,-0.161
0.374,-0.122
0.375,-0.086
0.376,-0.054
0.377,-0.034
0.378,-0.029
0.379,-0.029
0.380,-0.054
0.381,-0.071
0.382,-0.094
0.383,-0.122
0.384,-0.145
0.385,-0.166
0.386,-0.184
0.387,-0.194
0.388,-0.191
0.389,-0.180
0.390,-0.164
0.391,-0.129
0.392,-0.096
0.393,-0.064
0.394,-0.033
0.395,-0.011
0.396,0.014
0.397,0.024
0.398,0.015
0.399,-0.004
0.400,-0.059
0.401,-0.091
0.402,-0.122
0.403,-0.150
0.404,-0.175
0.405,-0.195
0.406,-0.209
0.407,-0.215
0.408,-0.211
0.409,-0.207
0.410,-0.194
0.411,-0.181
0.412,-0.154
0.413,-0.130
0.414,-0.114
0.415,-0.101
0.416,-0.089
0.417,-0.104
0.418,-0.121
0.419,-0.135
0.420,-0.204
0.421,-0.231
0.422,-0.271
0.423,-0.305
0.424,-0.331
0.425,-0.351
0.426,-0.356
0.427,-0.355
0.428,-0.345
0.429,-0.326
0.430,-0.296
0.431,-0.263
0.432,-0.230
0.433,-0.206
0.434,-0.191
0.435,-0.193
0.436,-0.201
0.437,-0.217
0.438,-0.251
0.439,-0.284
0.440,-0.376
0.441,-0.406
0.442,-0.429
0.443,-0.441
0.444,-0.445
0.445,-0.426
0.446,-0.401
0.447,-0.366
0.448,-0.330
0.449,-0.304
0.450,-0.281
0.451,-0.254
0.452,-0.231
0.453,-0.214
0.454,-0.211
0.455,-0.221
0.456,-0.228
0.457,-0.249
0.458,-0.269
0.459,-0.296
0.460,-0.365
0.461,-0.410
0.462,-0.421
0.463,-0.429
0.464,-0.429
0.465,-0.412
0.466,-0.385
0.467,-0.354
0.468,-0.321
0.469,-0.286
0.470,-0.261
0.471,-0.241
0.472,-0.231
0.473,-0.233
0.474,-0.247
0.475,-0.265
0.476,-0.284
0.477,-0.309
0.478,-0.341
0.479,-0.366
0.480,-0.411
0.481,-0.410
0.482,-0.405
0.483,-0.385
0.484,-0.366
0.485,-0.346
0.486,-0.321
0.487,-0.292
0.488,-0.274
0.489,-0.254
0.490,-0.244
0.491,-0.244
0.492,-0.250
0.493,-0.266
0.494,-0.286
0.495,-0.309
0.496,-0.336
0.497,-0.369
0.498,-0.401
0.499,-0.426
0.500,-0.444
0.501,-0.441
0.502,-0.426
0.503,-0.406
0.504,-0.370
0.505,-0.344
0.506,-0.310
0.507,-0.281
0.508,-0.256
0.509,-0.242
0.510,-0.244
0.511,-0.249
0.512,-0.264
0.513,-0.289
0.514,-0.321
0.515,-0.349
0.516,-0.374
0.517,-0.391
0.518,-0.404
0.519,-0.403
0.520,-0.372
0.521,-0.351
0.522,-0.326
0.523,-0.291
0.524,-0.266
0.525,-0.241
0.526,-0.212
0.527,-0.196
0.528,-0.194
0.529,-0.201
0.530,-0.214
0.531,-0.241
0.532,-0.256
0.533,-0.286
0.534,-0.326
0.535,-0.349
0.536,-0.369
0.537,-0.381
0.538,-0.386
0.539,-0.389
0.540,-0.372
0.541,-0.351
0.542,-0.325
0.543,-0.297
0.544,-0.274
0.545,-0.254
0.546,-0.241
0.547,-0.230
0.548,-0.231
0.549,-0.246
0.550,-0.266
0.551,-0.291
0.552,-0.311
0.553,-0.340
0.554,-0.356
0.555,-0.372
0.556,-0.386
0.557,-0.401
0.558,-0.393
0.559,-0.381
0.560,-0.320
0.561,-0.290
0.562,-0.255
0.563,-0.225
0.564,-0.206
0.565,-0.196
0.566,-0.189
0.567,-0.196
0.568,-0.211
0.569,-0.241
0.570,-0.268
0.571,-0.297
0.572,-0.331
0.573,-0.364
0.574,-0.389
0.575,-0.411
0.576,-0.424
0.577,-0.424
0.578,-0.426
0.579,-0.412
0.580,-0.374
0.581,-0.354
0.582,-0.334
0.583,-0.306
0.584,-0.284
0.585,-0.268
0.586,-0.250
0.587,-0.242
0.588,-0.233
0.589,-0.246
0.590,-0.254
0.591,-0.269
0.592,-0.290
0.593,-0.309
0.594,-0.334
0.595,-0.350
0.596,-0.351
0.597,-0.351
0.598,-0.336
0.599,-0.321
0.600,-0.261
0.601,-0.244
0.602,-0.224
0.603,-0.209
0.604,-0.214
0.605,-0.226
0.606,-0.254
0.607,-0.287
0.608,-0.324
0.609,-0.354
0.610,-0.376
0.611,-0.391
0.612,-0.410
0.613,-0.411
0.614,-0.403
0.615,-0.379
0.616,-0.354
0.617,-0.330
0.618,-0.299
0.619,-0.273
0.620,-0.226
0.621,-0.210
0.622,-0.209
0.623,-0.214
0.624,-0.224
0.625,-0.246
0.626,-0.281
0.627,-0.329
0.628,-0.354
0.629,-0.376
0.630,-0.394
0.631,-0.414
0.632,-0.411
0.633,-0.404
0.634,-0.386
0.635,-0.361
0.636,-0.341
0.637,-0.307
0.638,-0.284
0.639,-0.256
0.640,-0.224
0.641,-0.216
0.642,-0.224
0.643,-0.244
0.644,-0.264
0.645,-0.286
0.646,-0.309
0.647,-0.334
0.648,-0.364
0.649,-0.381
0.650,-0.394
0.651,-0.405
0.652,-0.401
0.653,-0.389
0.654,-0.366
0.655,-0.346
0.656,-0.314
0.657,-0.285
0.658,-0.268
0.659,-0.246
0.660,-0.225
0.661,-0.229
0.662,-0.249
0.663,-0.268
0.664,-0.294
0.665,-0.324
0.666,-0.351
0.667,-0.370
0.668,-0.393
0.669,-0.411
0.670,-0.416
0.671,-0.411
0.672,-0.389
0.673,-0.362
0.674,-0.326
0.675,-0.289
0.676,-0.254
0.677,-0.217
0.678,-0.193
0.679,-0.180
0.680,-0.186
0.681,-0.204
0.682,-0.229
0.683,-0.263
0.684,-0.291
0.685,-0.314
0.686,-0.343
0.687,-0.354
0.688,-0.367
0.689,-0.365
0.690,-0.362
0.691,-0.346
0.692,-0.330
0.693,-0.296
0.694,-0.268
0.695,-0.231
0.696,-0.205
0.697,-0.182
0.698,-0.169
0.699,-0.161
0.700,-0.168
0.701,-0.191
0.702,-0.211
0.703,-0.241
0.704,-0.269
0.705,-0.292
0.706,-0.314
0.707,-0.329
0.708,-0.331
0.709,-0.309
0.710,-0.289
0.711,-0.266
0.712,-0.234
0.713,-0.209
0.714,-0.184
0.715,-0.169
0.716,-0.154
0.717,-0.149
0.718,-0.149
0.719,-0.151
0.720,-0.169
0.721,-0.181
0.722,-0.204
0.723,-0.225
0.724,-0.253
0.725,-0.271
0.726,-0.284
0.727,-0.289
0.728,-0.286
0.729,-0.268
0.730,-0.245
0.731,-0.204
0.732,-0.168
0.733,-0.128
0.734,-0.089
0.735,-0.052
0.736,-0.026
0.737,-0.014
0.738,-0.011
0.739,-0.025
0.740,-0.056
0.741,-0.086
0.742,-0.120
0.743,-0.144
0.744,-0.169
0.745,-0.182
0.746,-0.188
0.747,-0.190
0.748,-0.184
0.749,-0.168
0.750,-0.144
0.751,-0.129
0.752,-0.106
0.753,-0.087
0.754,-0.071
0.755,-0.069
0.756,-0.074
0.757,-0.091
0.758,-0.114
0.759,-0.146
0.760,-0.217
0.761,-0.261
0.762,-0.291
0.763,-0.309
0.764,-0.326
0.765,-0.333
0.766,-0.326
0.767,-0.311
0.768,-0.294
0.769,-0.269
0.770,-0.244
0.771,-0.210
0.772,-0.184
0.773,-0.168
0.774,-0.152
0.775,-0.154
0.776,-0.171
0.777,-0.190
0.778,-0.221
0.779,-0.250
0.780,-0.321
0.781,-0.343
0.782,-0.355
0.783,-0.369
0.784,-0.364
0.785,-0.356
0.786,-0.338
0.787,-0.310
0.788,-0.282
0.789,-0.254
0.790,-0.229
0.791,-0.210
0.792,-0.204
0.793,-0.209
0.794,-0.224
0.795,-0.249
0.796,-0.270
0.797,-0.294
0.798,-0.324
0.799,-0.341
0.800,-0.371
0.801,-0.384
0.802,-0.384
0.803,-0.374
0.804,-0.357
0.805,-0.336
0.806,-0.305
0.807,-0.271
0.808,-0.244
0.809,-0.210
0.810,-0.191
0.811,-0.182
0.812,-0.174
0.813,-0.175
0.814,-0.189
0.815,-0.204
0.816,-0.230
0.817,-0.271
0.818,-0.294
0.819,-0.325
0.820,-0.350
0.821,-0.346
0.822,-0.335
0.823,-0.311
0.824,-0.287
0.825,-0.261
0.826,-0.229
0.827,-0.207
0.828,-0.185
0.829,-0.181
0.830,-0.176
0.831,-0.186
0.832,-0.203
0.833,-0.225
0.834,-0.246
0.835,-0.271
0.836,-0.297
0.837,-0.325
0.838,-0.331
0.839,-0.341
0.840,-0.324
0.841,-0.309
0.842,-0.290
0.843,-0.271
0.844,-0.246
0.845,-0.210
0.846,-0.188
0.847,-0.169
0.848,-0.168
0.849,-0.181
0.850,-0.194
0.851,-0.216
0.852,-0.246
0.853,-0.281
0.854,-0.312
0.855,-0.351
0.856,-0.384
0.857,-0.414
0.858,-0.429
0.859,-0.436
0.860,-0.414
0.861,-0.375
0.862,-0.333
0.863,-0.281
0.864,-0.215
0.865,-0.149
0.866,-0.083
0.867,-0.011
0.868,0.055
0.869,0.116
0.870,0.175
0.871,0.226
0.872,0.289
0.873,0.354
0.874,0.426
0.875,0.504
0.876,0.593
0.877,0.698
0.878,0.814
0.879,0.944
0.880,1.311
0.881,1.470
0.882,1.677
0.883,1.865
0.884,2.044
0.885,2.194
0.886,2.276
0.887,2.306
0.888,2.270
0.889,2.156
0.890,2.014
0.891,1.826
0.892,1.624
0.893,1.399
0.894,1.185
0.895,0.978
0.896,0.779
0.897,0.596
0.898,0.429
0.899,0.274
0.900,0.029
0.901,-0.051
0.902,-0.129
0.903,-0.191
0.904,-0.229
0.905,-0.270
0.906,-0.309
0.907,-0.351
0.908,-0.389
0.909,-0.434
0.910,-0.472
0.911,-0.509
0.912,-0.537
0.913,-0.562
0.914,-0.570
0.915,-0.570
0.916,-0.554
0.917,-0.535
0.918,-0.505
0.919,-0.469
0.920,-0.376
0.921,-0.347
0.922,-0.323
0.923,-0.294
0.924,-0.284
0.925,-0.281
0.926,-0.290
0.927,-0.297
0.928,-0.324
0.929,-0.341
0.930,-0.356
0.931,-0.367
0.932,-0.381
0.933,-0.391
0.934,-0.401
0.935,-0.391
0.936,-0.388
0.937,-0.370
0.938,-0.354
0.939,-0.329
0.940,-0.274
0.941,-0.265
0.942,-0.249
0.943,-0.249
0.944,-0.246
0.945,-0.249
0.946,-0.249
0.947,-0.256
0.948,-0.271
0.949,-0.294
0.950,-0.325
0.951,-0.351
0.952,-0.364
0.953,-0.371
0.954,-0.367
0.955,-0.355
0.956,-0.341
0.957,-0.314
0.958,-0.294
0.959,-0.261
0.960,-0.199
0.961,-0.186
0.962,-0.168
0.963,-0.161
0.964,-0.152
0.965,-0.166
0.966,-0.184
0.967,-0.210
0.968,-0.244
0.969,-0.271
0.970,-0.294
0.971,-0.320
0.972,-0.330
0.973,-0.333
0.974,-0.324
0.975,-0.296
0.976,-0.274
0.977,-0.245
0.978,-0.214
0.979,-0.189
0.980,-0.169
0.981,-0.170
0.982,-0.181
0.983,-0.194
0.984,-0.215
0.985,-0.242
0.986,-0.271
0.987,-0.301
0.988,-0.324
0.989,-0.345
0.990,-0.349
0.991,-0.349
0.992,-0.334
0.993,-0.312
0.994,-0.294
0.995,-0.268
0.996,-0.244
0.997,-0.210
0.998,-0.186
0.999,-0.163
1.000,-0.133
1.001,-0.144
1.002,-0.164
1.003,-0.188
1.004,-0.210
1.005,-0.231
1.006,-0.256
1.007,-0.281
1.008,-0.294
1.009,-0.306
1.010,-0.302
1.011,-0.291
1.012,-0.287
1.013,-0.266
1.014,-0.249
1.015,-0.231
1.016,-0.217
1.017,-0.212
1.018,-0.216
1.019,-0.221
1.020,-0.251
1.021,-0.269
1.022,-0.285
1.023,-0.299
1.024,-0.311
1.025,-0.311
1.026,-0.304
1.027,-0.290
1.028,-0.275
1.029,-0.253
1.030,-0.230
1.031,-0.196
1.032,-0.174
1.033,-0.145
1.034,-0.121
1.035,-0.094
1.036,-0.085
1.037,-0.074
1.038,-0.081
1.039,-0.094
1.040,-0.134
1.041,-0.154
1.042,-0.182
1.043,-0.196
1.044,-0.210
1.045,-0.226
1.046,-0.228
1.047,-0.229
1.048,-0.216
1.049,-0.209
1.050,-0.195
1.051,-0.176
1.052,-0.160
1.053,-0.124
1.054,-0.102
1.055,-0.072
1.056,-0.055
1.057,-0.052
1.058,-0.055
1.059,-0.068
1.060,-0.121
1.061,-0.134
1.062,-0.154
1.063,-0.171
1.064,-0.186
1.065,-0.198
1.066,-0.180
1.067,-0.161
1.068,-0.136
1.069,-0.115
1.070,-0.089
1.071,-0.056
1.072,-0.031
1.073,-0.013
1.074,0.007
1.075,-0.004
1.076,-0.009
1.077,-0.021
1.078,-0.031
1.079,-0.054
1.080,-0.107
1.081,-0.126
1.082,-0.145
1.083,-0.164
1.084,-0.151
1.085,-0.142
1.086,-0.124
1.087,-0.101
1.088,-0.071
1.089,-0.045
1.090,-0.021
1.091,0.009
1.092,0.019
1.093,0.024
1.094,0.026
1.095,0.014
1.096,-0.009
1.097,-0.030
1.098,-0.062
1.099,-0.091
1.100,-0.134
1.101,-0.142
1.102,-0.138
1.103,-0.130
1.104,-0.109
1.105,-0.086
1.106,-0.050
1.107,-0.024
1.108,0.014
1.109,0.033
1.110,0.055
1.111,0.069
1.112,0.069
1.113,0.059
1.114,0.049
1.115,0.025
1.116,-0.006
1.117,-0.035
1.118,-0.056
1.119,-0.081
1.120,-0.111
1.121,-0.114
1.122,-0.101
1.123,-0.083
1.124,-0.055
1.125,-0.031
1.126,-0.006
1.127,0.025
1.128,0.039
1.129,0.046
1.130,0.031
1.131,0.019
1.132,-0.011
1.133,-0.046
1.134,-0.086
1.135,-0.124
1.136,-0.160
1.137,-0.182
1.138,-0.204
1.139,-0.204
1.140,-0.190
1.141,-0.184
1.142,-0.152
1.143,-0.129
1.144,-0.109
1.145,-0.087
1.146,-0.070
1.147,-0.056
1.148,-0.058
1.149,-0.070
1.150,-0.090
1.151,-0.126
1.152,-0.154
1.153,-0.194
1.154,-0.231
1.155,-0.271
1.156,-0.304
1.157,-0.329
1.158,-0.346
1.159,-0.351
1.160,-0.326
1.161,-0.306
1.162,-0.284
1.163,-0.255
1.164,-0.234
1.165,-0.211
1.166,-0.194
1.167,-0.184
1.168,-0.184
1.169,-0.196
1.170,-0.216
1.171,-0.250
1.172,-0.282
1.173,-0.323
1.174,-0.346
1.175,-0.371
1.176,-0.386
1.177,-0.401
1.178,-0.404
1.179,-0.384
1.180,-0.331
1.181,-0.304
1.182,-0.275
1.183,-0.246
1.184,-0.210
1.185,-0.191
1.186,-0.190
1.187,-0.190
1.188,-0.210
1.189,-0.226
1.190,-0.269
1.191,-0.304
1.192,-0.345
1.193,-0.369
1.194,-0.393
1.195,-0.409
1.196,-0.411
1.197,-0.406
1.198,-0.386
1.199,-0.361
1.200,-0.309
1.201,-0.281
1.202,-0.253
1.203,-0.228
1.204,-0.211
1.205,-0.209
1.206,-0.206
1.207,-0.217
1.208,-0.233
1.209,-0.261
1.210,-0.286
1.211,-0.309
1.212,-0.334
1.213,-0.352
1.214,-0.361
1.215,-0.364
1.216,-0.354
1.217,-0.341
1.218,-0.329
1.219,-0.306
1.220,-0.251
1.221,-0.229
1.222,-0.211
1.223,-0.194
1.224,-0.189
1.225,-0.182
1.226,-0.184
1.227,-0.195
1.228,-0.214
1.229,-0.233
1.230,-0.263
1.231,-0.289
1.232,-0.310
1.233,-0.340
1.234,-0.346
1.235,-0.349
1.236,-0.341
1.237,-0.314
1.238,-0.292
1.239,-0.261
1.240,-0.191
1.241,-0.174
1.242,-0.151
1.243,-0.136
1.244,-0.136
1.245,-0.146
1.246,-0.154
1.247,-0.184
1.248,-0.214
1.249,-0.250
1.250,-0.280
1.251,-0.321
1.252,-0.343
1.253,-0.356
1.254,-0.354
1.255,-0.329
1.256,-0.302
1.257,-0.269
1.258,-0.231
1.259,-0.201
1.260,-0.145
1.261,-0.134
1.262,-0.125
1.263,-0.129
1.264,-0.141
1.265,-0.166
1.266,-0.180
1.267,-0.209
1.268,-0.234
1.269,-0.251
1.270,-0.266
1.271,-0.269
1.272,-0.271
1.273,-0.256
1.274,-0.246
1.275,-0.215
1.276,-0.188
1.277,-0.168
1.278,-0.136
1.279,-0.124
1.280,-0.111
1.281,-0.121
1.282,-0.161
1.283,-0.186
1.284,-0.212
1.285,-0.244
1.286,-0.261
1.287,-0.266
1.288,-0.266
1.289,-0.261
1.290,-0.246
1.291,-0.226
1.292,-0.205
1.293,-0.180
1.294,-0.150
1.295,-0.129
1.296,-0.110
1.297,-0.095
1.298,-0.086
1.299,-0.084
1.300,-0.109
1.301,-0.152
1.302,-0.190
1.303,-0.215
1.304,-0.246
1.305,-0.271
1.306,-0.285
1.307,-0.291
1.308,-0.286
1.309,-0.274
1.310,-0.254
1.311,-0.226
1.312,-0.194
1.313,-0.166
1.314,-0.133
1.315,-0.109
1.316,-0.094
1.317,-0.085
1.318,-0.083
1.319,-0.102
1.320,-0.151
1.321,-0.184
1.322,-0.209
1.323,-0.242
1.324,-0.269
1.325,-0.285
1.326,-0.291
1.327,-0.294
1.328,-0.280
1.329,-0.264
1.330,-0.231
1.331,-0.209
1.332,-0.184
1.333,-0.152
1.334,-0.134
1.335,-0.125
1.336,-0.113
1.337,-0.111
1.338,-0.129
1.339,-0.146
1.340,-0.214
1.341,-0.244
1.342,-0.265
1.343,-0.282
1.344,-0.286
1.345,-0.286
1.346,-0.281
1.347,-0.264
1.348,-0.244
1.349,-0.216
1.350,-0.194
1.351,-0.161
1.352,-0.125
1.353,-0.094
1.354,-0.081
1.355,-0.071
1.356,-0.084
1.357,-0.095
1.358,-0.115
1.359,-0.144
1.360,-0.225
1.361,-0.244
1.362,-0.254
1.363,-0.265
1.364,-0.264
1.365,-0.263
1.366,-0.254
1.367,-0.246
1.368,-0.226
1.369,-0.210
1.370,-0.184
1.371,-0.165
1.372,-0.147
1.373,-0.126
1.374,-0.109
1.375,-0.101
1.376,-0.101
1.377,-0.107
1.378,-0.121
1.379,-0.136
1.380,-0.191
1.381,-0.210
1.382,-0.230
1.383,-0.249
1.384,-0.254
1.385,-0.256
1.386,-0.249
1.387,-0.231
1.388,-0.216
1.389,-0.196
1.390,-0.174
1.391,-0.161
1.392,-0.141
1.393,-0.129
1.394,-0.134
1.395,-0.151
1.396,-0.176
1.397,-0.207
1.398,-0.241
1.399,-0.273
1.400,-0.344
1.401,-0.365
1.402,-0.381
1.403,-0.381
1.404,-0.371
1.405,-0.336
1.406,-0.296
1.407,-0.247
1.408,-0.195
1.409,-0.161
1.410,-0.129
1.411,-0.126
1.412,-0.121
1.413,-0.125
1.414,-0.142
1.415,-0.166
1.416,-0.186
1.417,-0.206
1.418,-0.229
1.419,-0.256
1.420,-0.289
1.421,-0.287
1.422,-0.289
1.423,-0.289
1.424,-0.275
1.425,-0.264
1.426,-0.242
1.427,-0.216
1.428,-0.203
1.429,-0.186
1.430,-0.184
1.431,-0.184
1.432,-0.191
1.433,-0.209
1.434,-0.224
1.435,-0.250
1.436,-0.271
1.437,-0.287
1.438,-0.296
1.439,-0.309
1.440,-0.325
1.441,-0.329
1.442,-0.321
1.443,-0.297
1.444,-0.281
1.445,-0.256
1.446,-0.230
1.447,-0.209
1.448,-0.191
1.449,-0.180
1.450,-0.174
1.451,-0.181
1.452,-0.193
1.453,-0.209
1.454,-0.231
1.455,-0.264
1.456,-0.289
1.457,-0.321
1.458,-0.336
1.459,-0.354
1.460,-0.366
1.461,-0.341
1.462,-0.321
1.463,-0.291
1.464,-0.273
1.465,-0.251
1.466,-0.229
1.467,-0.219
1.468,-0.211
1.469,-0.215
1.470,-0.224
1.471,-0.231
1.472,-0.254
1.473,-0.274
1.474,-0.301
1.475,-0.331
1.476,-0.349
1.477,-0.364
1.478,-0.364
1.479,-0.362
1.480,-0.329
1.481,-0.266
1.482,-0.231
1.483,-0.201
1.484,-0.175
1.485,-0.164
1.486,-0.141
1.487,-0.136
1.488,-0.145
1.489,-0.164
1.490,-0.191
1.491,-0.224
1.492,-0.255
1.493,-0.274
1.494,-0.289
1.495,-0.304
1.496,-0.309
1.497,-0.302
1.498,-0.286
1.499,-0.269
1.500,-0.225
1.501,-0.206
1.502,-0.186
1.503,-0.169
1.504,-0.164
1.505,-0.151
1.506,-0.163
1.507,-0.174
1.508,-0.191
1.509,-0.203
1.510,-0.221
1.511,-0.244
1.512,-0.253
1.513,-0.264
1.514,-0.268
1.515,-0.264
1.516,-0.256
1.517,-0.241
1.518,-0.214
1.519,-0.191
1.520,-0.129
1.521,-0.109
1.522,-0.094
1.523,-0.091
1.524,-0.090
1.525,-0.104
1.526,-0.125
1.527,-0.152
1.528,-0.184
1.529,-0.216
1.530,-0.249
1.531,-0.274
1.532,-0.295
1.533,-0.311
1.534,-0.321
1.535,-0.321
1.536,-0.309
1.537,-0.292
1.538,-0.281
1.539,-0.254
1.540,-0.203
1.541,-0.191
1.542,-0.186
1.543,-0.190
1.544,-0.204
1.545,-0.221
1.546,-0.251
1.547,-0.276
1.548,-0.304
1.549,-0.324
1.550,-0.341
1.551,-0.355
1.552,-0.366
1.553,-0.369
1.554,-0.367
1.555,-0.354
1.556,-0.341
1.557,-0.314
1.558,-0.292
1.559,-0.270
1.560,-0.224
1.561,-0.216
1.562,-0.212
1.563,-0.209
1.564,-0.224
1.565,-0.246
1.566,-0.269
1.567,-0.291
1.568,-0.324
1.569,-0.351
1.570,-0.374
1.571,-0.385
1.572,-0.391
1.573,-0.389
1.574,-0.371
1.575,-0.354
1.576,-0.326
1.577,-0.294
1.578,-0.268
1.579,-0.241
1.580,-0.193
1.581,-0.185
1.582,-0.185
1.583,-0.196
1.584,-0.211
1.585,-0.245
1.586,-0.275
1.587,-0.306
1.588,-0.346
1.589,-0.372
1.590,-0.391
1.591,-0.410
1.592,-0.404
1.593,-0.384
1.594,-0.356
1.595,-0.328
1.596,-0.296
1.597,-0.270
1.598,-0.231
1.599,-0.196
1.600,-0.149
1.601,-0.150
1.602,-0.164
1.603,-0.189
1.604,-0.216
1.605,-0.255
1.606,-0.289
1.607,-0.321
1.608,-0.336
1.609,-0.350
1.610,-0.352
1.611,-0.346
1.612,-0.329
1.613,-0.301
1.614,-0.271
1.615,-0.246
1.616,-0.211
1.617,-0.182
1.618,-0.151
1.619,-0.134
1.620,-0.129
1.621,-0.134
1.622,-0.154
1.623,-0.186
1.624,-0.216
1.625,-0.261
1.626,-0.291
1.627,-0.330
1.628,-0.354
1.629,-0.376
1.630,-0.389
1.631,-0.393
1.632,-0.394
1.633,-0.384
1.634,-0.361
1.635,-0.336
1.636,-0.299
1.637,-0.268
1.638,-0.224
1.639,-0.191
1.640,-0.129
1.641,-0.090
1.642,-0.059
1.643,-0.029
1.644,0.019
1.645,0.069
1.646,0.136
1.647,0.224
1.648,0.329
1.649,0.439
1.650,0.569
1.651,0.704
1.652,0.849
1.653,1.004
1.654,1.167
1.655,1.344
1.656,1.519
1.657,1.711
1.658,1.874
1.659,2.016
1.660,2.155
1.661,2.132
1.662,2.054
1.663,1.939
1.664,1.789
1.665,1.637
1.666,1.485
1.667,1.334
1.668,1.176
1.669,1.016
1.670,0.871
1.671,0.726
1.672,0.574
1.673,0.430
1.674,0.294
1.675,0.166
1.676,0.051
1.677,-0.058
1.678,-0.149
1.679,-0.230
1.680,-0.384
1.681,-0.429
1.682,-0.481
1.683,-0.524
1.684,-0.549
1.685,-0.575
1.686,-0.583
1.687,-0.584
1.688,-0.571
1.689,-0.554
1.690,-0.517
1.691,-0.495
1.692,-0.456
1.693,-0.426
1.694,-0.401
1.695,-0.374
1.696,-0.354
1.697,-0.355
1.698,-0.364
1.699,-0.374
1.700,-0.410
1.701,-0.424
1.702,-0.434
1.703,-0.441
1.704,-0.445
1.705,-0.431
1.706,-0.414
1.707,-0.390
1.708,-0.366
1.709,-0.345
1.710,-0.324
1.711,-0.305
1.712,-0.296
1.713,-0.302
1.714,-0.306
1.715,-0.314
1.716,-0.334
1.717,-0.346
1.718,-0.362
1.719,-0.376
1.720,-0.409
1.721,-0.416
1.722,-0.416
1.723,-0.411
1.724,-0.390
1.725,-0.371
1.726,-0.352
1.727,-0.333
1.728,-0.311
1.729,-0.290
1.730,-0.271
1.731,-0.256
1.732,-0.246
1.733,-0.241
1.734,-0.231
1.735,-0.244
1.736,-0.254
1.737,-0.275
1.738,-0.291
1.739,-0.309
1.740,-0.326
1.741,-0.329
1.742,-0.335
1.743,-0.330
1.744,-0.311
1.745,-0.291
1.746,-0.269
1.747,-0.245
1.748,-0.214
1.749,-0.191
1.750,-0.175
1.751,-0.169
1.752,-0.169
1.753,-0.171
1.754,-0.184
1.755,-0.195
1.756,-0.221
1.757,-0.253
1.758,-0.284
1.759,-0.309
1.760,-0.352
1.761,-0.356
1.762,-0.349
1.763,-0.334
1.764,-0.328
1.765,-0.296
1.766,-0.268
1.767,-0.241
1.768,-0.210
1.769,-0.184
1.770,-0.161
1.771,-0.149
1.772,-0.145
1.773,-0.152
1.774,-0.170
1.775,-0.194
1.776,-0.226
1.777,-0.256
1.778,-0.276
1.779,-0.296
1.780,-0.321
1.781,-0.310
1.782,-0.296
1.783,-0.274
1.784,-0.246
1.785,-0.211
1.786,-0.184
1.787,-0.154
1.788,-0.134
1.789,-0.122
1.790,-0.121
1.791,-0.129
1.792,-0.134
1.793,-0.160
1.794,-0.185
1.795,-0.207
1.796,-0.230
1.797,-0.256
1.798,-0.281
1.799,-0.291
1.800,-0.285
1.801,-0.271
1.802,-0.245
1.803,-0.210
1.804,-0.176
1.805,-0.145
1.806,-0.113
1.807,-0.089
1.808,-0.069
1.809,-0.066
1.810,-0.070
1.811,-0.084
1.812,-0.105
1.813,-0.134
1.814,-0.174
1.815,-0.210
1.816,-0.244
1.817,-0.266
1.818,-0.284
1.819,-0.289
1.820,-0.265
1.821,-0.241
1.822,-0.203
1.823,-0.161
1.824,-0.121
1.825,-0.087
1.826,-0.056
1.827,-0.041
1.828,-0.031
1.829,-0.031
1.830,-0.045
1.831,-0.066
1.832,-0.090
1.833,-0.111
1.834,-0.141
1.835,-0.169
1.836,-0.186
1.837,-0.194
1.838,-0.196
1.839,-0.189
1.840,-0.147
1.841,-0.111
1.842,-0.086
1.843,-0.056
1.844,-0.036
1.845,-0.029
1.846,-0.025
1.847,-0.034
1.848,-0.046
1.849,-0.064
1.850,-0.084
1.851,-0.107
1.852,-0.129
1.853,-0.149
1.854,-0.166
1.855,-0.176
1.856,-0.176
1.857,-0.171
1.858,-0.154
1.859,-0.138
1.860,-0.087
1.861,-0.061
1.862,-0.044
1.863,-0.016
1.864,0.009
1.865,0.014
1.866,0.019
1.867,0.011
1.868,-0.014
1.869,-0.034
1.870,-0.064
1.871,-0.095
1.872,-0.124
1.873,-0.141
1.874,-0.154
1.875,-0.165
1.876,-0.164
1.877,-0.144
1.878,-0.124
1.879,-0.100
1.880,-0.030
1.881,-0.010
1.882,0.019
1.883,0.034
1.884,0.037
1.885,0.036
1.886,0.028
1.887,0.007
1.888,-0.025
1.889,-0.051
1.890,-0.086
1.891,-0.110
1.892,-0.130
1.893,-0.136
1.894,-0.136
1.895,-0.129
1.896,-0.109
1.897,-0.090
1.898,-0.055
1.899,-0.026
1.900,0.039
1.901,0.058
1.902,0.070
1.903,0.071
1.904,0.064
1.905,0.049
1.906,0.024
1.907,-0.011
1.908,-0.044
1.909,-0.085
1.910,-0.114
1.911,-0.147
1.912,-0.171
1.913,-0.186
1.914,-0.190
1.915,-0.186
1.916,-0.172
1.917,-0.152
1.918,-0.131
1.919,-0.114
1.920,-0.046
1.921,-0.028
1.922,-0.006
1.923,0.010
1.924,-0.004
1.925,-0.014
1.926,-0.043
1.927,-0.070
1.928,-0.106
1.929,-0.139
1.930,-0.174
1.931,-0.201
1.932,-0.226
1.933,-0.241
1.934,-0.242
1.935,-0.241
1.936,-0.231
1.937,-0.216
1.938,-0.204
1.939,-0.189
1.940,-0.169
1.941,-0.172
1.942,-0.174
1.943,-0.185
1.944,-0.204
1.945,-0.228
1.946,-0.256
1.947,-0.289
1.948,-0.326
1.949,-0.345
1.950,-0.359
1.951,-0.365
1.952,-0.364
1.953,-0.351
1.954,-0.331
1.955,-0.306
1.956,-0.285
1.957,-0.254
1.958,-0.226
1.959,-0.214
1.960,-0.209
1.961,-0.212
1.962,-0.229
1.963,-0.254
1.964,-0.276
1.965,-0.304
1.966,-0.333
1.967,-0.356
1.968,-0.374
1.969,-0.389
1.970,-0.391
1.971,-0.386
1.972,-0.376
1.973,-0.356
1.974,-0.334
1.975,-0.302
1.976,-0.280
1.977,-0.261
1.978,-0.249
1.979,-0.246
1.980,-0.256
1.981,-0.266
1.982,-0.291
1.983,-0.325
1.984,-0.346
1.985,-0.375
1.986,-0.411
1.987,-0.429
1.988,-0.444
1.989,-0.446
1.990,-0.429
1.991,-0.391
1.992,-0.355
1.993,-0.309
1.994,-0.269
1.995,-0.229
1.996,-0.195
1.997,-0.172
1.998,-0.164
1.999,-0.165
2.000,-0.186
2.001,-0.206
2.002,-0.231
2.003,-0.264
2.004,-0.295
2.005,-0.334
2.006,-0.355
2.007,-0.370
2.008,-0.384
2.009,-0.376
2.010,-0.369
2.011,-0.350
2.012,-0.324
2.013,-0.289
2.014,-0.251
2.015,-0.214
2.016,-0.191
2.017,-0.172
2.018,-0.168
2.019,-0.166
2.020,-0.201
2.021,-0.251
2.022,-0.284
2.023,-0.307
2.024,-0.335
2.025,-0.351
2.026,-0.356
2.027,-0.351
2.028,-0.344
2.029,-0.320
2.030,-0.286
2.031,-0.255
2.032,-0.221
2.033,-0.196
2.034,-0.171
2.035,-0.149
2.036,-0.147
2.037,-0.146
2.038,-0.163
2.039,-0.177
2.040,-0.242
2.041,-0.287
2.042,-0.314
2.043,-0.331
2.044,-0.331
2.045,-0.330
2.046,-0.306
2.047,-0.284
2.048,-0.253
2.049,-0.216
2.050,-0.185
2.051,-0.151
2.052,-0.128
2.053,-0.106
2.054,-0.101
2.055,-0.111
2.056,-0.131
2.057,-0.151
2.058,-0.191
2.059,-0.216
2.060,-0.281
2.061,-0.301
2.062,-0.310
2.063,-0.306
2.064,-0.305
2.065,-0.290
2.066,-0.281
2.067,-0.256
2.068,-0.231
2.069,-0.206
2.070,-0.172
2.071,-0.147
2.072,-0.134
2.073,-0.130
2.074,-0.129
2.075,-0.142
2.076,-0.166
2.077,-0.191
2.078,-0.221
2.079,-0.251
2.080,-0.305
2.081,-0.321
2.082,-0.314
2.083,-0.312
2.084,-0.295
2.085,-0.268
2.086,-0.244
2.087,-0.204
2.088,-0.169
2.089,-0.139
2.090,-0.121
2.091,-0.106
2.092,-0.104
2.093,-0.110
2.094,-0.111
2.095,-0.134
2.096,-0.151
2.097,-0.181
2.098,-0.201
2.099,-0.229
2.100,-0.265
2.101,-0.266
2.102,-0.259
2.103,-0.246
2.104,-0.224
2.105,-0.198
2.106,-0.174
2.107,-0.145
2.108,-0.129
2.109,-0.109
2.110,-0.101
2.111,-0.101
2.112,-0.114
2.113,-0.136
2.114,-0.169
2.115,-0.204
2.116,-0.231
2.117,-0.255
2.118,-0.268
2.119,-0.276
2.120,-0.268
2.121,-0.255
2.122,-0.226
2.123,-0.195
2.124,-0.164
2.125,-0.129
2.126,-0.104
2.127,-0.074
2.128,-0.056
2.129,-0.051
2.130,-0.049
2.131,-0.056
2.132,-0.084
2.133,-0.109
2.134,-0.136
2.135,-0.169
2.136,-0.194
2.137,-0.226
2.138,-0.246
2.139,-0.255
2.140,-0.254
2.141,-0.249
2.142,-0.226
2.143,-0.207
2.144,-0.174
2.145,-0.142
2.146,-0.122
2.147,-0.109
2.148,-0.096
2.149,-0.096
2.150,-0.106
2.151,-0.113
2.152,-0.131
2.153,-0.151
2.154,-0.185
2.155,-0.209
2.156,-0.226
2.157,-0.247
2.158,-0.256
2.159,-0.256
2.160,-0.234
2.161,-0.214
2.162,-0.194
2.163,-0.174
2.164,-0.149
2.165,-0.130
2.166,-0.116
2.167,-0.106
2.168,-0.101
2.169,-0.104
2.170,-0.113
2.171,-0.131
2.172,-0.161
2.173,-0.186
2.174,-0.211
2.175,-0.234
2.176,-0.255
2.177,-0.273
2.178,-0.276
2.179,-0.280
2.180,-0.241
2.181,-0.210
2.182,-0.164
2.183,-0.146
2.184,-0.124
2.185,-0.111
2.186,-0.114
2.187,-0.121
2.188,-0.145
2.189,-0.166
2.190,-0.186
2.191,-0.209
2.192,-0.229
2.193,-0.250
2.194,-0.264
2.195,-0.271
2.196,-0.271
2.197,-0.266
2.198,-0.246
2.199,-0.224
2.200,-0.171
2.201,-0.128
2.202,-0.109
2.203,-0.104
2.204,-0.101
2.205,-0.106
2.206,-0.122
2.207,-0.142
2.208,-0.171
2.209,-0.205
2.210,-0.230
2.211,-0.250
2.212,-0.266
2.213,-0.281
2.214,-0.276
2.215,-0.275
2.216,-0.265
2.217,-0.244
2.218,-0.221
2.219,-0.196
2.220,-0.161
2.221,-0.144
2.222,-0.129
2.223,-0.116
2.224,-0.121
2.225,-0.126
2.226,-0.146
2.227,-0.170
2.228,-0.196
2.229,-0.229
2.230,-0.251
2.231,-0.266
2.232,-0.269
2.233,-0.271
2.234,-0.261
2.235,-0.244
2.236,-0.214
2.237,-0.189
2.238,-0.161
2.239,-0.126
2.240,-0.083
2.241,-0.071
2.242,-0.074
2.243,-0.096
2.244,-0.126
2.245,-0.154
2.246,-0.186
2.247,-0.209
2.248,-0.233
2.249,-0.251
2.250,-0.261
2.251,-0.266
2.252,-0.264
2.253,-0.246
2.254,-0.223
2.255,-0.204
2.256,-0.170
2.257,-0.146
2.258,-0.121
2.259,-0.109
2.260,-0.104
2.261,-0.105
2.262,-0.114
2.263,-0.129
2.264,-0.150
2.265,-0.176
2.266,-0.199
2.267,-0.216
2.268,-0.234
2.269,-0.250
2.270,-0.253
2.271,-0.249
2.272,-0.231
2.273,-0.206
2.274,-0.182
2.275,-0.146
2.276,-0.121
2.277,-0.092
2.278,-0.066
2.279,-0.051
2.280,-0.066
2.281,-0.081
2.282,-0.106
2.283,-0.136
2.284,-0.169
2.285,-0.196
2.286,-0.225
2.287,-0.245
2.288,-0.253
2.289,-0.254
2.290,-0.249
2.291,-0.229
2.292,-0.205
2.293,-0.175
2.294,-0.142
2.295,-0.111
2.296,-0.084
2.297,-0.064
2.298,-0.046
2.299,-0.037
2.300,-0.050
2.301,-0.071
2.302,-0.102
2.303,-0.131
2.304,-0.161
2.305,-0.184
2.306,-0.209
2.307,-0.217
2.308,-0.224
2.309,-0.219
2.310,-0.205
2.311,-0.184
2.312,-0.161
2.313,-0.126
2.314,-0.104
2.315,-0.074
2.316,-0.050
2.317,-0.049
2.318,-0.062
2.319,-0.069
2.320,-0.101
2.321,-0.116
2.322,-0.131
2.323,-0.149
2.324,-0.165
2.325,-0.170
2.326,-0.169
2.327,-0.149
2.328,-0.126
2.329,-0.095
2.330,-0.065
2.331,-0.034
2.332,-0.014
2.333,0.011
2.334,0.021
2.335,0.025
2.336,0.019
2.337,0.007
2.338,-0.024
2.339,-0.050
2.340,-0.134
2.341,-0.206
2.342,-0.234
2.343,-0.264
2.344,-0.271
2.345,-0.275
2.346,-0.281
2.347,-0.271
2.348,-0.251
2.349,-0.228
2.350,-0.203
2.351,-0.174
2.352,-0.163
2.353,-0.151
2.354,-0.151
2.355,-0.164
2.356,-0.174
2.357,-0.191
2.358,-0.216
2.359,-0.246
2.360,-0.301
2.361,-0.321
2.362,-0.331
2.363,-0.336
2.364,-0.335
2.365,-0.326
2.366,-0.304
2.367,-0.276
2.368,-0.246
2.369,-0.209
2.370,-0.176
2.371,-0.154
2.372,-0.144
2.373,-0.142
2.374,-0.149
2.375,-0.174
2.376,-0.196
2.377,-0.229
2.378,-0.264
2.379,-0.287
2.380,-0.331
2.381,-0.336
2.382,-0.336
2.383,-0.324
2.384,-0.294
2.385,-0.271
2.386,-0.245
2.387,-0.212
2.388,-0.190
2.389,-0.176
2.390,-0.174
2.391,-0.185
2.392,-0.204
2.393,-0.224
2.394,-0.261
2.395,-0.286
2.396,-0.306
2.397,-0.334
2.398,-0.351
2.399,-0.344
2.400,-0.326
2.401,-0.306
2.402,-0.289
2.403,-0.264
2.404,-0.226
2.405,-0.191
2.406,-0.169
2.407,-0.146
2.408,-0.129
2.409,-0.122
2.410,-0.126
2.411,-0.141
2.412,-0.161
2.413,-0.186
2.414,-0.211
2.415,-0.261
2.416,-0.294
2.417,-0.330
2.418,-0.354
2.419,-0.364
2.420,-0.349
2.421,-0.336
2.422,-0.295
2.423,-0.261
2.424,-0.216
2.425,-0.184
2.426,-0.151
2.427,-0.129
2.428,-0.125
2.429,-0.121
2.430,-0.133
2.431,-0.161
2.432,-0.189
2.433,-0.221
2.434,-0.268
2.435,-0.306
2.436,-0.350
2.437,-0.384
2.438,-0.416
2.439,-0.427
2.440,-0.441
2.441,-0.434
2.442,-0.409
2.443,-0.371
2.444,-0.341
2.445,-0.291
2.446,-0.247
2.447,-0.201
2.448,-0.169
2.449,-0.136
2.450,-0.107
2.451,-0.066
2.452,-0.021
2.453,0.036
2.454,0.107
2.455,0.186
2.456,0.284
2.457,0.394
2.458,0.516
2.459,0.651
2.460,0.951
2.461,1.089
2.462,1.266
2.463,1.469
2.464,1.670
2.465,1.864
2.466,2.046
2.467,2.186
2.468,2.254
2.469,2.237
2.470,2.176
2.471,2.054
2.472,1.891
2.473,1.709
2.474,1.509
2.475,1.314
2.476,1.116
2.477,0.931
2.478,0.755
2.479,0.589
2.480,0.278
2.481,0.189
2.482,0.096
2.483,0.022
2.484,-0.046
2.485,-0.104
2.486,-0.152
2.487,-0.209
2.488,-0.270
2.489,-0.331
2.490,-0.386
2.491,-0.446
2.492,-0.504
2.493,-0.550
2.494,-0.589
2.495,-0.611
2.496,-0.621
2.497,-0.616
2.498,-0.601
2.499,-0.573
2.500,-0.481
2.501,-0.389
2.502,-0.356
2.503,-0.321
2.504,-0.286
2.505,-0.271
2.506,-0.264
2.507,-0.265
2.508,-0.281
2.509,-0.304
2.510,-0.331
2.511,-0.351
2.512,-0.371
2.513,-0.389
2.514,-0.404
2.515,-0.405
2.516,-0.389
2.517,-0.371
2.518,-0.343
2.519,-0.304
2.520,-0.241
2.521,-0.195
2.522,-0.188
2.523,-0.194
2.524,-0.214
2.525,-0.234
2.526,-0.269
2.527,-0.296
2.528,-0.330
2.529,-0.351
2.530,-0.365
2.531,-0.375
2.532,-0.376
2.533,-0.376
2.534,-0.364
2.535,-0.341
2.536,-0.310
2.537,-0.281
2.538,-0.249
2.539,-0.214
2.540,-0.176
2.541,-0.170
2.542,-0.174
2.543,-0.191
2.544,-0.211
2.545,-0.249
2.546,-0.274
2.547,-0.306
2.548,-0.324
2.549,-0.344
2.550,-0.350
2.551,-0.350
2.552,-0.341
2.553,-0.324
2.554,-0.297
2.555,-0.273
2.556,-0.246
2.557,-0.216
2.558,-0.194
2.559,-0.181
2.560,-0.169
2.561,-0.174
2.562,-0.186
2.563,-0.206
2.564,-0.234
2.565,-0.269
2.566,-0.291
2.567,-0.324
2.568,-0.346
2.569,-0.352
2.570,-0.354
2.571,-0.351
2.572,-0.341
2.573,-0.326
2.574,-0.299
2.575,-0.274
2.576,-0.244
2.577,-0.211
2.578,-0.191
2.579,-0.175
2.580,-0.180
2.581,-0.194
2.582,-0.221
2.583,-0.234
2.584,-0.254
2.585,-0.270
2.586,-0.282
2.587,-0.287
2.588,-0.290
2.589,-0.286
2.590,-0.276
2.591,-0.264
2.592,-0.250
2.593,-0.224
2.594,-0.206
2.595,-0.184
2.596,-0.164
2.597,-0.149
2.598,-0.144
2.599,-0.144
2.600,-0.166
2.601,-0.171
2.602,-0.186
2.603,-0.205
2.604,-0.216
2.605,-0.231
2.606,-0.246
2.607,-0.251
2.608,-0.251
2.609,-0.234
2.610,-0.212
2.611,-0.189
2.612,-0.166
2.613,-0.131
2.614,-0.110
2.615,-0.087
2.616,-0.074
2.617,-0.071
2.618,-0.081
2.619,-0.086
2.620,-0.129
2.621,-0.151
2.622,-0.181
2.623,-0.201
2.624,-0.224
2.625,-0.249
2.626,-0.254
2.627,-0.251
2.628,-0.244
2.629,-0.221
2.630,-0.194
2.631,-0.163
2.632,-0.126
2.633,-0.095
2.634,-0.066
2.635,-0.054
2.636,-0.045
2.637,-0.046
2.638,-0.059
2.639,-0.080
2.640,-0.121
2.641,-0.146
2.642,-0.164
2.643,-0.182
2.644,-0.194
2.645,-0.204
2.646,-0.204
2.647,-0.189
2.648,-0.171
2.649,-0.144
2.650,-0.120
2.651,-0.086
2.652,-0.051
2.653,-0.026
2.654,-0.006
2.655,0.011
2.656,0.019
2.657,-0.004
2.658,-0.013
2.659,-0.034
2.660,-0.106
2.661,-0.128
2.662,-0.151
2.663,-0.174
2.664,-0.189
2.665,-0.194
2.666,-0.190
2.667,-0.171
2.668,-0.144
2.669,-0.107
2.670,-0.072
2.671,-0.041
2.672,-0.016
2.673,0.009
2.674,0.019
2.675,0.014
2.676,-0.003
2.677,-0.016
2.678,-0.036
2.679,-0.066
2.680,-0.129
2.681,-0.165
2.682,-0.174
2.683,-0.181
2.684,-0.171
2.685,-0.163
2.686,-0.135
2.687,-0.105
2.688,-0.074
2.689,-0.050
2.690,-0.025
2.691,-0.014
2.692,-0.014
2.693,-0.015
2.694,-0.031
2.695,-0.046
2.696,-0.069
2.697,-0.096
2.698,-0.126
2.699,-0.151
2.700,-0.209
2.701,-0.215
2.702,-0.209
2.703,-0.196
2.704,-0.175
2.705,-0.142
2.706,-0.121
2.707,-0.096
2.708,-0.061
2.709,-0.030
2.710,-0.011
2.711,-0.006
2.712,-0.006
2.713,-0.026
2.714,-0.046
2.715,-0.069
2.716,-0.094
2.717,-0.105
2.718,-0.116
2.719,-0.134
2.720,-0.149
2.721,-0.161
2.722,-0.149
2.723,-0.146
2.724,-0.134
2.725,-0.121
2.726,-0.105
2.727,-0.091
2.728,-0.086
2.729,-0.081
2.730,-0.084
2.731,-0.094
2.732,-0.114
2.733,-0.141
2.734,-0.176
2.735,-0.211
2.736,-0.247
2.737,-0.281
2.738,-0.304
2.739,-0.329
2.740,-0.344
2.741,-0.334
2.742,-0.333
2.743,-0.310
2.744,-0.295
2.745,-0.281
2.746,-0.261
2.747,-0.249
2.748,-0.244
2.749,-0.241
2.750,-0.251
2.751,-0.266
2.752,-0.286
2.753,-0.323
2.754,-0.351
2.755,-0.374
2.756,-0.393
2.757,-0.411
2.758,-0.416
2.759,-0.421
2.760,-0.394
2.761,-0.381
2.762,-0.354
2.763,-0.326
2.764,-0.291
2.765,-0.271
2.766,-0.249
2.767,-0.226
2.768,-0.224
2.769,-0.231
2.770,-0.246
2.771,-0.271
2.772,-0.296
2.773,-0.333
2.774,-0.365
2.775,-0.401
2.776,-0.421
2.777,-0.444
2.778,-0.451
2.779,-0.456
2.780,-0.426
2.781,-0.403
2.782,-0.369
2.783,-0.330
2.784,-0.291
2.785,-0.266
2.786,-0.251
2.787,-0.246
2.788,-0.247
2.789,-0.261
2.790,-0.274
2.791,-0.301
2.792,-0.334
2.793,-0.356
2.794,-0.381
2.795,-0.403
2.796,-0.411
2.797,-0.412
2.798,-0.411
2.799,-0.403
2.800,-0.364
2.801,-0.344
2.802,-0.321
2.803,-0.292
2.804,-0.274
2.805,-0.251
2.806,-0.241
2.807,-0.229
2.808,-0.224
2.809,-0.225
2.810,-0.241
2.811,-0.255
2.812,-0.276
2.813,-0.296
2.814,-0.321
2.815,-0.336
2.816,-0.351
2.817,-0.356
2.818,-0.354
2.819,-0.344
2.820,-0.304
2.821,-0.290
2.822,-0.269
2.823,-0.250
2.824,-0.244
2.825,-0.242
2.826,-0.251
2.827,-0.264
2.828,-0.275
2.829,-0.306
2.830,-0.336
2.831,-0.361
2.832,-0.376
2.833,-0.386
2.834,-0.388
2.835,-0.391
2.836,-0.385
2.837,-0.385
2.838,-0.376
2.839,-0.371
2.840,-0.349
2.841,-0.329
2.842,-0.299
2.843,-0.274
2.844,-0.250
2.845,-0.226
2.846,-0.221
2.847,-0.226
2.848,-0.247
2.849,-0.266
2.850,-0.286
2.851,-0.305
2.852,-0.334
2.853,-0.347
2.854,-0.354
2.855,-0.361
2.856,-0.351
2.857,-0.334
2.858,-0.306
2.859,-0.278
2.860,-0.233
2.861,-0.209
2.862,-0.205
2.863,-0.211
2.864,-0.228
2.865,-0.254
2.866,-0.284
2.867,-0.323
2.868,-0.354
2.869,-0.389
2.870,-0.416
2.871,-0.434
2.872,-0.444
2.873,-0.424
2.874,-0.405
2.875,-0.370
2.876,-0.340
2.877,-0.309
2.878,-0.276
2.879,-0.247
2.880,-0.201
2.881,-0.191
2.882,-0.186
2.883,-0.189
2.884,-0.205
2.885,-0.221
2.886,-0.253
2.887,-0.275
2.888,-0.295
2.889,-0.321
2.890,-0.331
2.891,-0.341
2.892,-0.344
2.893,-0.334
2.894,-0.326
2.895,-0.305
2.896,-0.289
2.897,-0.271
2.898,-0.256
2.899,-0.254
2.900,-0.233
2.901,-0.226
2.902,-0.225
2.903,-0.231
2.904,-0.244
2.905,-0.253
2.906,-0.266
2.907,-0.274
2.908,-0.290
2.909,-0.296
2.910,-0.304
2.911,-0.299
2.912,-0.294
2.913,-0.276
2.914,-0.256
2.915,-0.234
2.916,-0.219
2.917,-0.196
2.918,-0.184
2.919,-0.174
2.920,-0.172
2.921,-0.185
2.922,-0.206
2.923,-0.229
2.924,-0.251
2.925,-0.276
2.926,-0.297
2.927,-0.321
2.928,-0.334
2.929,-0.344
2.930,-0.344
2.931,-0.331
2.932,-0.311
2.933,-0.296
2.934,-0.274
2.935,-0.255
2.936,-0.231
2.937,-0.216
2.938,-0.209
2.939,-0.203
2.940,-0.216
2.941,-0.226
2.942,-0.249
2.943,-0.264
2.944,-0.284
2.945,-0.301
2.946,-0.321
2.947,-0.330
2.948,-0.331
2.949,-0.325
2.950,-0.311
2.951,-0.290
2.952,-0.270
2.953,-0.246
2.954,-0.224
2.955,-0.206
2.956,-0.204
2.957,-0.198
2.958,-0.209
2.959,-0.224
2.960,-0.268
2.961,-0.281
2.962,-0.304
2.963,-0.329
2.964,-0.354
2.965,-0.386
2.966,-0.407
2.967,-0.416
2.968,-0.414
2.969,-0.394
2.970,-0.370
2.971,-0.328
2.972,-0.281
2.973,-0.229
2.974,-0.189
2.975,-0.161
2.976,-0.141
2.977,-0.135
2.978,-0.136
2.979,-0.161
2.980,-0.211
2.981,-0.245
2.982,-0.274
2.983,-0.306
2.984,-0.335
2.985,-0.351
2.986,-0.359
2.987,-0.354
2.988,-0.346
2.989,-0.326
2.990,-0.301
2.991,-0.281
2.992,-0.249
2.993,-0.226
2.994,-0.209
2.995,-0.203
2.996,-0.196
2.997,-0.209
2.998,-0.219
2.999,-0.235
3.000,-0.287
3.001,-0.305
3.002,-0.326
3.003,-0.344
3.004,-0.351
3.005,-0.354
3.006,-0.351
3.007,-0.333
3.008,-0.321
3.009,-0.290
3.010,-0.265
3.011,-0.244
3.012,-0.216
3.013,-0.196
3.014,-0.184
3.015,-0.181
3.016,-0.186
3.017,-0.195
3.018,-0.214
3.019,-0.244
3.020,-0.302
3.021,-0.326
3.022,-0.349
3.023,-0.349
3.024,-0.346
3.025,-0.341
3.026,-0.324
3.027,-0.305
3.028,-0.286
3.029,-0.269
3.030,-0.249
3.031,-0.231
3.032,-0.216
3.033,-0.216
3.034,-0.226
3.035,-0.228
3.036,-0.242
3.037,-0.254
3.038,-0.271
3.039,-0.295
3.040,-0.331
3.041,-0.331
3.042,-0.312
3.043,-0.292
3.044,-0.274
3.045,-0.255
3.046,-0.231
3.047,-0.211
3.048,-0.196
3.049,-0.184
3.050,-0.175
3.051,-0.174
3.052,-0.184
3.053,-0.201
3.054,-0.226
3.055,-0.260
3.056,-0.286
3.057,-0.307
3.058,-0.330
3.059,-0.341
3.060,-0.344
3.061,-0.333
3.062,-0.321
3.063,-0.297
3.064,-0.269
3.065,-0.246
3.066,-0.215
3.067,-0.203
3.068,-0.190
3.069,-0.185
3.070,-0.190
3.071,-0.205
3.072,-0.226
3.073,-0.249
3.074,-0.270
3.075,-0.291
3.076,-0.311
3.077,-0.341
3.078,-0.354
3.079,-0.366
3.080,-0.356
3.081,-0.349
3.082,-0.326
3.083,-0.294
3.084,-0.261
3.085,-0.216
3.086,-0.180
3.087,-0.151
3.088,-0.126
3.089,-0.115
3.090,-0.126
3.091,-0.161
3.092,-0.186
3.093,-0.215
3.094,-0.242
3.095,-0.264
3.096,-0.284
3.097,-0.306
3.098,-0.314
3.099,-0.328
3.100,-0.321
3.101,-0.304
3.102,-0.289
3.103,-0.266
3.104,-0.246
3.105,-0.216
3.106,-0.203
3.107,-0.182
3.108,-0.166
3.109,-0.174
3.110,-0.189
3.111,-0.206
3.112,-0.219
3.113,-0.254
3.114,-0.275
3.115,-0.304
3.116,-0.314
3.117,-0.324
3.118,-0.321
3.119,-0.306
3.120,-0.254
3.121,-0.228
3.122,-0.196
3.123,-0.169
3.124,-0.141
3.125,-0.128
3.126,-0.114
3.127,-0.120
3.128,-0.126
3.129,-0.145
3.130,-0.171
3.131,-0.196
3.132,-0.226
3.133,-0.254
3.134,-0.281
3.135,-0.304
3.136,-0.321
3.137,-0.324
3.138,-0.310
3.139,-0.299
3.140,-0.229
3.141,-0.186
3.142,-0.144
3.143,-0.095
3.144,-0.066
3.145,-0.041
3.146,-0.029
3.147,-0.031
3.148,-0.041
3.149,-0.061
3.150,-0.090
3.151,-0.114
3.152,-0.138
3.153,-0.170
3.154,-0.196
3.155,-0.221
3.156,-0.231
3.157,-0.235
3.158,-0.229
3.159,-0.214
3.160,-0.163
3.161,-0.135
3.162,-0.105
3.163,-0.083
3.164,-0.055
3.165,-0.049
3.166,-0.046
3.167,-0.051
3.168,-0.066
3.169,-0.091
3.170,-0.122
3.171,-0.151
3.172,-0.185
3.173,-0.196
3.174,-0.210
3.175,-0.216
3.176,-0.211
3.177,-0.196
3.178,-0.176
3.179,-0.160
3.180,-0.106
3.181,-0.094
3.182,-0.081
3.183,-0.072
3.184,-0.069
3.185,-0.076
3.186,-0.096
3.187,-0.126
3.188,-0.149
3.189,-0.181
3.190,-0.211
3.191,-0.246
3.192,-0.276
3.193,-0.296
3.194,-0.310
3.195,-0.324
3.196,-0.325
3.197,-0.306
3.198,-0.281
3.199,-0.234
3.200,-0.164
3.201,-0.146
3.202,-0.146
3.203,-0.163
3.204,-0.177
3.205,-0.201
3.206,-0.231
3.207,-0.263
3.208,-0.290
3.209,-0.311
3.210,-0.331
3.211,-0.341
3.212,-0.350
3.213,-0.350
3.214,-0.344
3.215,-0.329
3.216,-0.307
3.217,-0.284
3.218,-0.256
3.219,-0.230
3.220,-0.205
3.221,-0.204
3.222,-0.216
3.223,-0.245
3.224,-0.264
3.225,-0.294
3.226,-0.328
3.227,-0.354
3.228,-0.369
3.229,-0.378
3.230,-0.384
3.231,-0.384
3.232,-0.369
3.233,-0.350
3.234,-0.309
3.235,-0.273
3.236,-0.242
3.237,-0.209
3.238,-0.184
3.239,-0.169
3.240,-0.172
3.241,-0.204
3.242,-0.223
3.243,-0.231
3.244,-0.250
3.245,-0.263
3.246,-0.281
3.247,-0.286
3.248,-0.290
3.249,-0.289
3.250,-0.284
3.251,-0.268
3.252,-0.244
3.253,-0.214
3.254,-0.194
3.255,-0.172
3.256,-0.151
3.257,-0.146
3.258,-0.149
3.259,-0.163
3.260,-0.204
3.261,-0.226
3.262,-0.261
3.263,-0.287
3.264,-0.311
3.265,-0.331
3.266,-0.341
3.267,-0.341
3.268,-0.331
3.269,-0.307
3.270,-0.284
3.271,-0.255
3.272,-0.229
3.273,-0.204
3.274,-0.186
3.275,-0.169
3.276,-0.164
3.277,-0.169
3.278,-0.181
3.279,-0.205
3.280,-0.266
3.281,-0.294
3.282,-0.336
3.283,-0.374
3.284,-0.411
3.285,-0.444
3.286,-0.465
3.287,-0.481
3.288,-0.474
3.289,-0.451
3.290,-0.416
3.291,-0.366
3.292,-0.297
3.293,-0.228
3.294,-0.150
3.295,-0.081
3.296,-0.003
3.297,0.074
3.298,0.144
3.299,0.216
3.300,0.375
3.301,0.453
3.302,0.534
3.303,0.610
3.304,0.710
3.305,0.829
3.306,0.951
3.307,1.091
3.308,1.250
3.309,1.419
3.310,1.610
3.311,1.786
3.312,1.951
3.313,2.074
3.314,2.155
3.315,2.172
3.316,2.136
3.317,2.044
3.318,1.914
3.319,1.754
3.320,1.354
3.321,1.189
3.322,0.991
3.323,0.811
3.324,0.629
3.325,0.464
3.326,0.316
3.327,0.189
3.328,0.086
3.329,-0.011
3.330,-0.086
3.331,-0.147
3.332,-0.210
3.333,-0.264
3.334,-0.312
3.335,-0.366
3.336,-0.412
3.337,-0.456
3.338,-0.497
3.339,-0.536
3.340,-0.606
3.341,-0.624
3.342,-0.631
3.343,-0.624
3.344,-0.606
3.345,-0.589
3.346,-0.564
3.347,-0.534
3.348,-0.511
3.349,-0.481
3.350,-0.445
3.351,-0.416
3.352,-0.381
3.353,-0.354
3.354,-0.335
3.355,-0.324
3.356,-0.315
3.357,-0.326
3.358,-0.344
3.359,-0.366
3.360,-0.424
3.361,-0.435
3.362,-0.449
3.363,-0.448
3.364,-0.430
3.365,-0.415
3.366,-0.386
3.367,-0.356
3.368,-0.331
3.369,-0.306
3.370,-0.286
3.371,-0.274
3.372,-0.274
3.373,-0.281
3.374,-0.294
3.375,-0.311
3.376,-0.341
3.377,-0.364
3.378,-0.385
3.379,-0.401
3.380,-0.411
3.381,-0.394
3.382,-0.385
3.383,-0.356
3.384,-0.329
3.385,-0.289
3.386,-0.261
3.387,-0.234
3.388,-0.225
3.389,-0.216
3.390,-0.229
3.391,-0.256
3.392,-0.285
3.393,-0.311
3.394,-0.346
3.395,-0.374
3.396,-0.405
3.397,-0.424
3.398,-0.431
3.399,-0.434
3.400,-0.389
3.401,-0.356
3.402,-0.331
3.403,-0.291
3.404,-0.266
3.405,-0.241
3.406,-0.216
3.407,-0.204
3.408,-0.201
3.409,-0.207
3.410,-0.219
3.411,-0.244
3.412,-0.269
3.413,-0.302
3.414,-0.341
3.415,-0.381
3.416,-0.426
3.417,-0.455
3.418,-0.481
3.419,-0.474
3.420,-0.422
3.421,-0.391
3.422,-0.351
3.423,-0.306
3.424,-0.271
3.425,-0.234
3.426,-0.204
3.427,-0.186
3.428,-0.181
3.429,-0.186
3.430,-0.206
3.431,-0.226
3.432,-0.251
3.433,-0.275
3.434,-0.304
3.435,-0.331
3.436,-0.341
3.437,-0.346
3.438,-0.346
3.439,-0.331
3.440,-0.284
3.441,-0.264
3.442,-0.231
3.443,-0.209
3.444,-0.186
3.445,-0.181
3.446,-0.176
3.447,-0.194
3.448,-0.216
3.449,-0.254
3.450,-0.292
3.451,-0.334
3.452,-0.366
3.453,-0.385
3.454,-0.401
3.455,-0.394
3.456,-0.371
3.457,-0.336
3.458,-0.292
3.459,-0.255
3.460,-0.171
3.461,-0.141
3.462,-0.106
3.463,-0.084
3.464,-0.068
3.465,-0.064
3.466,-0.071
3.467,-0.089
3.468,-0.109
3.469,-0.138
3.470,-0.172
3.471,-0.206
3.472,-0.230
3.473,-0.255
3.474,-0.268
3.475,-0.281
3.476,-0.276
3.477,-0.266
3.478,-0.251
3.479,-0.221
3.480,-0.161
3.481,-0.134
3.482,-0.111
3.483,-0.092
3.484,-0.081
3.485,-0.086
3.486,-0.096
3.487,-0.111
3.488,-0.134
3.489,-0.161
3.490,-0.184
3.491,-0.210
3.492,-0.231
3.493,-0.246
3.494,-0.251
3.495,-0.249
3.496,-0.240
3.497,-0.212
3.498,-0.190
3.499,-0.164
3.500,-0.107
3.501,-0.074
3.502,-0.061
3.503,-0.054
3.504,-0.062
3.505,-0.086
3.506,-0.107
3.507,-0.139
3.508,-0.171
3.509,-0.204
3.510,-0.214
3.511,-0.225
3.512,-0.225
3.513,-0.216
3.514,-0.201
3.515,-0.175
3.516,-0.144
3.517,-0.109
3.518,-0.071
3.519,-0.037
3.520,0.024
3.521,0.033
3.522,0.034
3.523,0.024
3.524,0.006
3.525,-0.026
3.526,-0.054
3.527,-0.085
3.528,-0.111
3.529,-0.130
3.530,-0.144
3.531,-0.146
3.532,-0.145
3.533,-0.130
3.534,-0.109
3.535,-0.086
3.536,-0.058
3.537,-0.034
3.538,-0.014
3.539,0.009
3.540,0.024
3.541,0.014
3.542,-0.004
3.543,-0.025
3.544,-0.051
3.545,-0.089
3.546,-0.114
3.547,-0.134
3.548,-0.149
3.549,-0.152
3.550,-0.154
3.551,-0.141
3.552,-0.126
3.553,-0.101
3.554,-0.074
3.555,-0.046
3.556,-0.028
3.557,-0.009
3.558,0.011
3.559,0.010
3.560,-0.021
3.561,-0.074
3.562,-0.110
3.563,-0.141
3.564,-0.174
3.565,-0.201
3.566,-0.219
3.567,-0.234
3.568,-0.241
3.569,-0.231
3.570,-0.224
3.571,-0.206
3.572,-0.188
3.573,-0.166
3.574,-0.146
3.575,-0.133
3.576,-0.126
3.577,-0.126
3.578,-0.134
3.579,-0.149
3.580,-0.216
3.581,-0.245
3.582,-0.281
3.583,-0.311
3.584,-0.344
3.585,-0.364
3.586,-0.378
3.587,-0.384
3.588,-0.374
3.589,-0.364
3.590,-0.344
3.591,-0.326
3.592,-0.304
3.593,-0.284
3.594,-0.268
3.595,-0.256
3.596,-0.258
3.597,-0.255
3.598,-0.266
3.599,-0.284
3.600,-0.334
3.601,-0.362
3.602,-0.390
3.603,-0.415
3.604,-0.426
3.605,-0.431
3.606,-0.429
3.607,-0.415
3.608,-0.401
3.609,-0.374
3.610,-0.350
3.611,-0.326
3.612,-0.304
3.613,-0.281
3.614,-0.269
3.615,-0.266
3.616,-0.274
3.617,-0.289
3.618,-0.320
3.619,-0.354
3.620,-0.444
3.621,-0.474
3.622,-0.511
3.623,-0.524
3.624,-0.522
3.625,-0.501
3.626,-0.463
3.627,-0.422
3.628,-0.371
3.629,-0.328
3.630,-0.286
3.631,-0.235
3.632,-0.211
3.633,-0.194
3.634,-0.189
3.635,-0.191
3.636,-0.210
3.637,-0.245
3.638,-0.281
3.639,-0.326
3.640,-0.410
3.641,-0.441
3.642,-0.459
3.643,-0.484
3.644,-0.470
3.645,-0.456
3.646,-0.441
3.647,-0.407
3.648,-0.370
3.649,-0.325
3.650,-0.291
3.651,-0.266
3.652,-0.249
3.653,-0.241
3.654,-0.241
3.655,-0.251
3.656,-0.270
3.657,-0.294
3.658,-0.330
3.659,-0.361
3.660,-0.409
3.661,-0.422
3.662,-0.427
3.663,-0.427
3.664,-0.420
3.665,-0.404
3.666,-0.384
3.667,-0.354
3.668,-0.329
3.669,-0.294
3.670,-0.271
3.671,-0.250
3.672,-0.234
3.673,-0.228
3.674,-0.234
3.675,-0.251
3.676,-0.270
3.677,-0.302
3.678,-0.331
3.679,-0.354
3.680,-0.403
3.681,-0.404
3.682,-0.403
3.683,-0.384
3.684,-0.364
3.685,-0.334
3.686,-0.304
3.687,-0.271
3.688,-0.233
3.689,-0.209
3.690,-0.191
3.691,-0.184
3.692,-0.188
3.693,-0.204
3.694,-0.221
3.695,-0.249
3.696,-0.280
3.697,-0.309
3.698,-0.341
3.699,-0.369
3.700,-0.406
3.701,-0.409
3.702,-0.376
3.703,-0.356
3.704,-0.328
3.705,-0.286
3.706,-0.244
3.707,-0.206
3.708,-0.174
3.709,-0.151
3.710,-0.146
3.711,-0.146
3.712,-0.164
3.713,-0.176
3.714,-0.191
3.715,-0.214
3.716,-0.229
3.717,-0.244
3.718,-0.254
3.719,-0.254
3.720,-0.251
3.721,-0.215
3.722,-0.199
3.723,-0.176
3.724,-0.152
3.725,-0.131
3.726,-0.109
3.727,-0.094
3.728,-0.095
3.729,-0.124
3.730,-0.147
3.731,-0.184
3.732,-0.212
3.733,-0.246
3.734,-0.269
3.735,-0.291
3.736,-0.289
3.737,-0.286
3.738,-0.276
3.739,-0.264
3.740,-0.228
3.741,-0.209
3.742,-0.206
3.743,-0.204
3.744,-0.203
3.745,-0.195
3.746,-0.194
3.747,-0.205
3.748,-0.221
3.749,-0.242
3.750,-0.250
3.751,-0.263
3.752,-0.271
3.753,-0.276
3.754,-0.271
3.755,-0.265
3.756,-0.242
3.757,-0.224
3.758,-0.204
3.759,-0.180
3.760,-0.130
3.761,-0.134
3.762,-0.161
3.763,-0.186
3.764,-0.214
3.765,-0.249
3.766,-0.281
3.767,-0.309
3.768,-0.336
3.769,-0.349
3.770,-0.349
3.771,-0.343
3.772,-0.324
3.773,-0.294
3.774,-0.264
3.775,-0.230
3.776,-0.196
3.777,-0.171
3.778,-0.149
3.779,-0.130
3.780,-0.135
3.781,-0.176
3.782,-0.207
3.783,-0.244
3.784,-0.270
3.785,-0.302
3.786,-0.331
3.787,-0.349
3.788,-0.361
3.789,-0.357
3.790,-0.354
3.791,-0.344
3.792,-0.325
3.793,-0.301
3.794,-0.281
3.795,-0.254
3.796,-0.229
3.797,-0.209
3.798,-0.204
3.799,-0.191
3.800,-0.201
3.801,-0.228
3.802,-0.247
3.803,-0.269
3.804,-0.289
3.805,-0.299
3.806,-0.309
3.807,-0.311
3.808,-0.307
3.809,-0.294
3.810,-0.281
3.811,-0.256
3.812,-0.231
3.813,-0.204
3.814,-0.181
3.815,-0.166
3.816,-0.152
3.817,-0.154
3.818,-0.169
3.819,-0.190
3.820,-0.260
3.821,-0.286
3.822,-0.324
3.823,-0.349
3.824,-0.367
3.825,-0.384
3.826,-0.381
3.827,-0.352
3.828,-0.311
3.829,-0.266
3.830,-0.221
3.831,-0.175
3.832,-0.145
3.833,-0.116
3.834,-0.096
3.835,-0.086
3.836,-0.090
3.837,-0.101
3.838,-0.124
3.839,-0.154
3.840,-0.231
3.841,-0.264
3.842,-0.285
3.843,-0.306
3.844,-0.312
3.845,-0.314
3.846,-0.304
3.847,-0.285
3.848,-0.261
3.849,-0.226
3.850,-0.199
3.851,-0.181
3.852,-0.170
3.853,-0.161
3.854,-0.164
3.855,-0.161
3.856,-0.172
3.857,-0.186
3.858,-0.206
3.859,-0.231
3.860,-0.289
3.861,-0.307
3.862,-0.325
3.863,-0.331
3.864,-0.325
3.865,-0.296
3.866,-0.270
3.867,-0.234
3.868,-0.209
3.869,-0.171
3.870,-0.142
3.871,-0.125
3.872,-0.113
3.873,-0.111
3.874,-0.114
3.875,-0.131
3.876,-0.161
3.877,-0.184
3.878,-0.214
3.879,-0.246
3.880,-0.296
3.881,-0.321
3.882,-0.311
3.883,-0.305
3.884,-0.286
3.885,-0.270
3.886,-0.246
3.887,-0.224
3.888,-0.196
3.889,-0.171
3.890,-0.146
3.891,-0.139
3.892,-0.131
3.893,-0.134
3.894,-0.146
3.895,-0.171
3.896,-0.194
3.897,-0.216
3.898,-0.246
3.899,-0.268
3.900,-0.304
3.901,-0.309
3.902,-0.305
3.903,-0.290
3.904,-0.269
3.905,-0.241
3.906,-0.205
3.907,-0.181
3.908,-0.144
3.909,-0.116
3.910,-0.104
3.911,-0.096
3.912,-0.104
3.913,-0.116
3.914,-0.141
3.915,-0.169
3.916,-0.196
3.917,-0.226
3.918,-0.251
3.919,-0.271
3.920,-0.294
3.921,-0.290
3.922,-0.280
3.923,-0.261
3.924,-0.242
3.925,-0.214
3.926,-0.196
3.927,-0.176
3.928,-0.164
3.929,-0.141
3.930,-0.131
3.931,-0.126
3.932,-0.131
3.933,-0.146
3.934,-0.174
3.935,-0.194
3.936,-0.221
3.937,-0.246
3.938,-0.268
3.939,-0.274
3.940,-0.273
3.941,-0.264
3.942,-0.246
3.943,-0.216
3.944,-0.189
3.945,-0.166
3.946,-0.139
3.947,-0.121
3.948,-0.104
3.949,-0.096
3.950,-0.106
3.951,-0.120
3.952,-0.141
3.953,-0.174
3.954,-0.204
3.955,-0.234
3.956,-0.265
3.957,-0.285
3.958,-0.295
3.959,-0.296
3.960,-0.281
3.961,-0.229
3.962,-0.203
3.963,-0.175
3.964,-0.146
3.965,-0.122
3.966,-0.105
3.967,-0.096
3.968,-0.094
3.969,-0.104
3.970,-0.121
3.971,-0.139
3.972,-0.164
3.973,-0.190
3.974,-0.210
3.975,-0.226
3.976,-0.244
3.977,-0.247
3.978,-0.246
3.979,-0.229
3.980,-0.181
3.981,-0.161
3.982,-0.128
3.983,-0.104
3.984,-0.085
3.985,-0.071
3.986,-0.069
3.987,-0.081
3.988,-0.094
3.989,-0.111
3.990,-0.142
3.991,-0.172
3.992,-0.193
3.993,-0.215
3.994,-0.234
3.995,-0.246
3.996,-0.249
3.997,-0.233
3.998,-0.216
3.999,-0.189
4.000,-0.114
4.001,-0.089
4.002,-0.056
4.003,-0.029
4.004,-0.006
4.005,0.009
4.006,0.011
4.007,0.009
4.008,-0.014
4.009,-0.046
4.010,-0.071
4.011,-0.109
4.012,-0.145
4.013,-0.176
4.014,-0.194
4.015,-0.210
4.016,-0.216
4.017,-0.212
4.018,-0.199
4.019,-0.182
4.020,-0.131
4.021,-0.120
4.022,-0.104
4.023,-0.091
4.024,-0.091
4.025,-0.104
4.026,-0.125
4.027,-0.150
4.028,-0.186
4.029,-0.224
4.030,-0.266
4.031,-0.301
4.032,-0.344
4.033,-0.361
4.034,-0.371
4.035,-0.376
4.036,-0.367
4.037,-0.351
4.038,-0.324
4.039,-0.290
4.040,-0.226
4.041,-0.207
4.042,-0.190
4.043,-0.188
4.044,-0.184
4.045,-0.196
4.046,-0.219
4.047,-0.246
4.048,-0.274
4.049,-0.306
4.050,-0.331
4.051,-0.352
4.052,-0.366
4.053,-0.370
4.054,-0.366
4.055,-0.356
4.056,-0.331
4.057,-0.307
4.058,-0.276
4.059,-0.253
4.060,-0.204
4.061,-0.194
4.062,-0.191
4.063,-0.198
4.064,-0.210
4.065,-0.231
4.066,-0.261
4.067,-0.281
4.068,-0.306
4.069,-0.333
4.070,-0.346
4.071,-0.356
4.072,-0.351
4.073,-0.344
4.074,-0.329
4.075,-0.304
4.076,-0.268
4.077,-0.242
4.078,-0.209
4.079,-0.184
4.080,-0.149
4.081,-0.145
4.082,-0.150
4.083,-0.169
4.084,-0.188
4.085,-0.215
4.086,-0.249
4.087,-0.271
4.088,-0.302
4.089,-0.324
4.090,-0.331
4.091,-0.330
4.092,-0.324
4.093,-0.296
4.094,-0.271
4.095,-0.247
4.096,-0.212
4.097,-0.191
4.098,-0.170
4.099,-0.149
4.100,-0.131
4.101,-0.131
4.102,-0.145
4.103,-0.168
4.104,-0.194
4.105,-0.221
4.106,-0.249
4.107,-0.276
4.108,-0.290
4.109,-0.306
4.110,-0.311
4.111,-0.311
4.112,-0.296
4.113,-0.286
4.114,-0.266
4.115,-0.249
4.116,-0.226
4.117,-0.216
4.118,-0.209
4.119,-0.209
4.120,-0.246
4.121,-0.265
4.122,-0.291
4.123,-0.310
4.124,-0.336
4.125,-0.347
4.126,-0.349
4.127,-0.334
4.128,-0.296
4.129,-0.249
4.130,-0.182
4.131,-0.094
4.132,0.014
4.133,0.133
4.134,0.259
4.135,0.386
4.136,0.519
4.137,0.669
4.138,0.776
4.139,0.902
4.140,1.160
4.141,1.254
4.142,1.399
4.143,1.516
4.144,1.649
4.145,1.775
4.146,1.889
4.147,1.978
4.148,2.031
4.149,2.046
4.150,2.029
4.151,1.994
4.152,1.930
4.153,1.849
4.154,1.735
4.155,1.619
4.156,1.459
4.157,1.294
4.158,1.109
4.159,0.924
4.160,0.514
4.161,0.189
4.162,0.039
4.163,-0.091
4.164,-0.209
4.165,-0.301
4.166,-0.372
4.167,-0.429
4.168,-0.461
4.169,-0.487
4.170,-0.494
4.171,-0.491
4.172,-0.485
4.173,-0.469
4.174,-0.466
4.175,-0.454
4.176,-0.446
4.177,-0.443
4.178,-0.435
4.179,-0.440
4.180,-0.461
4.181,-0.465
4.182,-0.471
4.183,-0.471
4.184,-0.469
4.185,-0.451
4.186,-0.431
4.187,-0.404
4.188,-0.370
4.189,-0.334
4.190,-0.295
4.191,-0.261
4.192,-0.229
4.193,-0.212
4.194,-0.196
4.195,-0.194
4.196,-0.204
4.197,-0.215
4.198,-0.242
4.199,-0.266
4.200,-0.341
4.201,-0.369
4.202,-0.391
4.203,-0.406
4.204,-0.409
4.205,-0.405
4.206,-0.384
4.207,-0.365
4.208,-0.341
4.209,-0.321
4.210,-0.287
4.211,-0.264
4.212,-0.234
4.213,-0.216
4.214,-0.207
4.215,-0.204
4.216,-0.205
4.217,-0.216
4.218,-0.241
4.219,-0.264
4.220,-0.302
4.221,-0.325
4.222,-0.331
4.223,-0.336
4.224,-0.341
4.225,-0.328
4.226,-0.305
4.227,-0.282
4.228,-0.250
4.229,-0.216
4.230,-0.193
4.231,-0.174
4.232,-0.165
4.233,-0.166
4.234,-0.171
4.235,-0.185
4.236,-0.198
4.237,-0.225
4.238,-0.251
4.239,-0.275
4.240,-0.310
4.241,-0.314
4.242,-0.314
4.243,-0.306
4.244,-0.287
4.245,-0.263
4.246,-0.226
4.247,-0.196
4.248,-0.170
4.249,-0.142
4.250,-0.122
4.251,-0.111
4.252,-0.110
4.253,-0.116
4.254,-0.134
4.255,-0.161
4.256,-0.190
4.257,-0.223
4.258,-0.255
4.259,-0.284
4.260,-0.331
4.261,-0.334
4.262,-0.328
4.263,-0.306
4.264,-0.286
4.265,-0.224
4.266,-0.195
4.267,-0.163
4.268,-0.138
4.269,-0.126
4.270,-0.121
4.271,-0.126
4.272,-0.141
4.273,-0.171
4.274,-0.199
4.275,-0.231
4.276,-0.265
4.277,-0.291
4.278,-0.311
4.279,-0.326
4.280,-0.311
4.281,-0.301
4.282,-0.273
4.283,-0.249
4.284,-0.221
4.285,-0.191
4.286,-0.170
4.287,-0.151
4.288,-0.131
4.289,-0.130
4.290,-0.133
4.291,-0.149
4.292,-0.175
4.293,-0.196
4.294,-0.224
4.295,-0.246
4.296,-0.261
4.297,-0.270
4.298,-0.274
4.299,-0.269
4.300,-0.233
4.301,-0.211
4.302,-0.186
4.303,-0.155
4.304,-0.130
4.305,-0.111
4.306,-0.101
4.307,-0.089
4.308,-0.087
4.309,-0.094
4.310,-0.114
4.311,-0.136
4.312,-0.170
4.313,-0.205
4.314,-0.230
4.315,-0.263
4.316,-0.286
4.317,-0.296
4.318,-0.297
4.319,-0.286
4.320,-0.224
4.321,-0.146
4.322,-0.094
4.323,-0.051
4.324,-0.028
4.325,-0.007
4.326,-0.006
4.327,-0.010
4.328,-0.026
4.329,-0.054
4.330,-0.089
4.331,-0.124
4.332,-0.151
4.333,-0.182
4.334,-0.199
4.335,-0.209
4.336,-0.209
4.337,-0.196
4.338,-0.175
4.339,-0.146
4.340,-0.071
4.341,-0.016
4.342,0.010
4.343,0.024
4.344,0.029
4.345,0.029
4.346,0.015
4.347,-0.009
4.348,-0.034
4.349,-0.066
4.350,-0.102
4.351,-0.129
4.352,-0.149
4.353,-0.163
4.354,-0.166
4.355,-0.165
4.356,-0.142
4.357,-0.124
4.358,-0.092
4.359,-0.049
4.360,0.029
4.361,0.046
4.362,0.060
4.363,0.064
4.364,0.049
4.365,0.036
4.366,0.014
4.367,-0.029
4.368,-0.071
4.369,-0.124
4.370,-0.161
4.371,-0.180
4.372,-0.189
4.373,-0.189
4.374,-0.166
4.375,-0.131
4.376,-0.096
4.377,-0.051
4.378,-0.010
4.379,0.031
4.380,0.091
4.381,0.104
4.382,0.106
4.383,0.096
4.384,0.079
4.385,0.050
4.386,0.019
4.387,-0.029
4.388,-0.066
4.389,-0.105
4.390,-0.138
4.391,-0.163
4.392,-0.169
4.393,-0.164
4.394,-0.149
4.395,-0.131
4.396,-0.104
4.397,-0.083
4.398,-0.056
4.399,-0.034
4.400,-0.022
4.401,-0.024
4.402,-0.036
4.403,-0.055
4.404,-0.085
4.405,-0.111
4.406,-0.141
4.407,-0.169
4.408,-0.194
4.409,-0.214
4.410,-0.226
4.411,-0.229
4.412,-0.224
4.413,-0.214
4.414,-0.194
4.415,-0.181
4.416,-0.163
4.417,-0.146
4.418,-0.130
4.419,-0.124
4.420,-0.125
4.421,-0.139
4.422,-0.174
4.423,-0.205
4.424,-0.242
4.425,-0.274
4.426,-0.310
4.427,-0.336
4.428,-0.355
4.429,-0.370
4.430,-0.376
4.431,-0.364
4.432,-0.344
4.433,-0.314
4.434,-0.285
4.435,-0.258
4.436,-0.226
4.437,-0.206
4.438,-0.189
4.439,-0.185
4.440,-0.191
4.441,-0.209
4.442,-0.230
4.443,-0.261
4.444,-0.290
4.445,-0.312
4.446,-0.341
4.447,-0.364
4.448,-0.375
4.449,-0.389
4.450,-0.388
4.451,-0.379
4.452,-0.355
4.453,-0.329
4.454,-0.304
4.455,-0.274
4.456,-0.255
4.457,-0.245
4.458,-0.231
4.459,-0.231
4.460,-0.253
4.461,-0.281
4.462,-0.301
4.463,-0.329
4.464,-0.354
4.465,-0.371
4.466,-0.389
4.467,-0.403
4.468,-0.409
4.469,-0.404
4.470,-0.386
4.471,-0.366
4.472,-0.344
4.473,-0.310
4.474,-0.282
4.475,-0.251
4.476,-0.241
4.477,-0.224
4.478,-0.230
4.479,-0.234
4.480,-0.281
4.481,-0.301
4.482,-0.329
4.483,-0.352
4.484,-0.381
4.485,-0.406
4.486,-0.415
4.487,-0.421
4.488,-0.412
4.489,-0.391
4.490,-0.370
4.491,-0.349
4.492,-0.321
4.493,-0.289
4.494,-0.256
4.495,-0.229
4.496,-0.215
4.497,-0.210
4.498,-0.214
4.499,-0.226
4.500,-0.286
4.501,-0.346
4.502,-0.366
4.503,-0.383
4.504,-0.389
4.505,-0.394
4.506,-0.386
4.507,-0.369
4.508,-0.346
4.509,-0.321
4.510,-0.286
4.511,-0.256
4.512,-0.231
4.513,-0.214
4.514,-0.195
4.515,-0.195
4.516,-0.196
4.517,-0.212
4.518,-0.234
4.519,-0.264
4.520,-0.326
4.521,-0.344
4.522,-0.361
4.523,-0.372
4.524,-0.371
4.525,-0.367
4.526,-0.351
4.527,-0.333
4.528,-0.309
4.529,-0.287
4.530,-0.269
4.531,-0.246
4.532,-0.224
4.533,-0.210
4.534,-0.209
4.535,-0.214
4.536,-0.226
4.537,-0.253
4.538,-0.274
4.539,-0.296
4.540,-0.351
4.541,-0.371
4.542,-0.376
4.543,-0.384
4.544,-0.374
4.545,-0.364
4.546,-0.344
4.547,-0.325
4.548,-0.294
4.549,-0.269
4.550,-0.241
4.551,-0.223
4.552,-0.207
4.553,-0.209
4.554,-0.226
4.555,-0.251
4.556,-0.285
4.557,-0.321
4.558,-0.349
4.559,-0.371
4.560,-0.404
4.561,-0.406
4.562,-0.406
4.563,-0.391
4.564,-0.371
4.565,-0.346
4.566,-0.311
4.567,-0.285
4.568,-0.254
4.569,-0.226
4.570,-0.211
4.571,-0.209
4.572,-0.209
4.573,-0.214
4.574,-0.230
4.575,-0.255
4.576,-0.274
4.577,-0.296
4.578,-0.324
4.579,-0.344
4.580,-0.369
4.581,-0.366
4.582,-0.356
4.583,-0.341
4.584,-0.310
4.585,-0.284
4.586,-0.251
4.587,-0.224
4.588,-0.205
4.589,-0.190
4.590,-0.181
4.591,-0.184
4.592,-0.196
4.593,-0.211
4.594,-0.233
4.595,-0.266
4.596,-0.291
4.597,-0.324
4.598,-0.345
4.599,-0.365
4.600,-0.369
4.601,-0.361
4.602,-0.344
4.603,-0.324
4.604,-0.296
4.605,-0.269
4.606,-0.249
4.607,-0.221
4.608,-0.204
4.609,-0.194
4.610,-0.194
4.611,-0.212
4.612,-0.228
4.613,-0.246
4.614,-0.273
4.615,-0.301
4.616,-0.329
4.617,-0.354
4.618,-0.367
4.619,-0.378
4.620,-0.366
4.621,-0.354
4.622,-0.330
4.623,-0.296
4.624,-0.269
4.625,-0.241
4.626,-0.215
4.627,-0.204
4.628,-0.204
4.629,-0.196
4.630,-0.205
4.631,-0.221
4.632,-0.249
4.633,-0.274
4.634,-0.296
4.635,-0.328
4.636,-0.349
4.637,-0.366
4.638,-0.369
4.639,-0.371
4.640,-0.336
4.641,-0.321
4.642,-0.290
4.643,-0.264
4.644,-0.223
4.645,-0.209
4.646,-0.196
4.647,-0.198
4.648,-0.214
4.649,-0.224
4.650,-0.246
4.651,-0.270
4.652,-0.302
4.653,-0.335
4.654,-0.365
4.655,-0.388
4.656,-0.406
4.657,-0.405
4.658,-0.393
4.659,-0.374
4.660,-0.311
4.661,-0.286
4.662,-0.230
4.663,-0.210
4.664,-0.205
4.665,-0.206
4.666,-0.215
4.667,-0.234
4.668,-0.261
4.669,-0.286
4.670,-0.321
4.671,-0.351
4.672,-0.369
4.673,-0.384
4.674,-0.391
4.675,-0.393
4.676,-0.385
4.677,-0.364
4.678,-0.334
4.679,-0.296
4.680,-0.229
4.681,-0.194
4.682,-0.184
4.683,-0.181
4.684,-0.186
4.685,-0.205
4.686,-0.226
4.687,-0.261
4.688,-0.287
4.689,-0.321
4.690,-0.346
4.691,-0.355
4.692,-0.362
4.693,-0.354
4.694,-0.341
4.695,-0.323
4.696,-0.290
4.697,-0.263
4.698,-0.221
4.699,-0.190
4.700,-0.149
4.701,-0.145
4.702,-0.149
4.703,-0.166
4.704,-0.191
4.705,-0.221
4.706,-0.251
4.707,-0.286
4.708,-0.326
4.709,-0.346
4.710,-0.355
4.711,-0.364
4.712,-0.354
4.713,-0.336
4.714,-0.321
4.715,-0.290
4.716,-0.261
4.717,-0.231
4.718,-0.206
4.719,-0.181
4.720,-0.151
4.721,-0.151
4.722,-0.160
4.723,-0.170
4.724,-0.186
4.725,-0.209
4.726,-0.229
4.727,-0.260
4.728,-0.281
4.729,-0.296
4.730,-0.311
4.731,-0.324
4.732,-0.321
4.733,-0.305
4.734,-0.289
4.735,-0.265
4.736,-0.246
4.737,-0.230
4.738,-0.207
4.739,-0.189
4.740,-0.175
4.741,-0.185
4.742,-0.205
4.743,-0.215
4.744,-0.241
4.745,-0.268
4.746,-0.294
4.747,-0.326
4.748,-0.344
4.749,-0.351
4.750,-0.355
4.751,-0.349
4.752,-0.331
4.753,-0.304
4.754,-0.271
4.755,-0.246
4.756,-0.214
4.757,-0.191
4.758,-0.174
4.759,-0.163
4.760,-0.176
4.761,-0.191
4.762,-0.223
4.763,-0.255
4.764,-0.284
4.765,-0.324
4.766,-0.349
4.767,-0.369
4.768,-0.376
4.769,-0.374
4.770,-0.356
4.771,-0.336
4.772,-0.296
4.773,-0.266
4.774,-0.226
4.775,-0.194
4.776,-0.166
4.777,-0.141
4.778,-0.130
4.779,-0.128
4.780,-0.149
4.781,-0.174
4.782,-0.194
4.783,-0.221
4.784,-0.249
4.785,-0.266
4.786,-0.274
4.787,-0.274
4.788,-0.271
4.789,-0.251
4.790,-0.228
4.791,-0.201
4.792,-0.169
4.793,-0.134
4.794,-0.110
4.795,-0.086
4.796,-0.071
4.797,-0.069
4.798,-0.069
4.799,-0.081
4.800,-0.126
4.801,-0.154
4.802,-0.190
4.803,-0.247
4.804,-0.266
4.805,-0.276
4.806,-0.286
4.807,-0.282
4.808,-0.269
4.809,-0.244
4.810,-0.204
4.811,-0.169
4.812,-0.130
4.813,-0.094
4.814,-0.064
4.815,-0.041
4.816,-0.029
4.817,-0.031
4.818,-0.052
4.819,-0.071
4.820,-0.134
4.821,-0.176
4.822,-0.189
4.823,-0.193
4.824,-0.191
4.825,-0.184
4.826,-0.166
4.827,-0.144
4.828,-0.125
4.829,-0.111
4.830,-0.101
4.831,-0.096
4.832,-0.091
4.833,-0.095
4.834,-0.105
4.835,-0.124
4.836,-0.146
4.837,-0.166
4.838,-0.194
4.839,-0.214
4.840,-0.263
4.841,-0.284
4.842,-0.290
4.843,-0.286
4.844,-0.284
4.845,-0.273
4.846,-0.253
4.847,-0.241
4.848,-0.216
4.849,-0.196
4.850,-0.189
4.851,-0.184
4.852,-0.184
4.853,-0.196
4.854,-0.223
4.855,-0.246
4.856,-0.274
4.857,-0.304
4.858,-0.331
4.859,-0.355
4.860,-0.376
4.861,-0.376
4.862,-0.371
4.863,-0.355
4.864,-0.329
4.865,-0.296
4.866,-0.270
4.867,-0.235
4.868,-0.216
4.869,-0.198
4.870,-0.190
4.871,-0.195
4.872,-0.205
4.873,-0.228
4.874,-0.261
4.875,-0.301
4.876,-0.341
4.877,-0.367
4.878,-0.386
4.879,-0.404
4.880,-0.410
4.881,-0.403
4.882,-0.378
4.883,-0.356
4.884,-0.334
4.885,-0.297
4.886,-0.266
4.887,-0.249
4.888,-0.221
4.889,-0.219
4.890,-0.216
4.891,-0.226
4.892,-0.246
4.893,-0.266
4.894,-0.290
4.895,-0.314
4.896,-0.336
4.897,-0.354
4.898,-0.371
4.899,-0.381
4.900,-0.366
4.901,-0.352
4.902,-0.326
4.903,-0.296
4.904,-0.270
4.905,-0.246
4.906,-0.215
4.907,-0.195
4.908,-0.189
4.909,-0.191
4.910,-0.201
4.911,-0.221
4.912,-0.251
4.913,-0.286
4.914,-0.321
4.915,-0.344
4.916,-0.364
4.917,-0.375
4.918,-0.379
4.919,-0.374
4.920,-0.334
4.921,-0.307
4.922,-0.284
4.923,-0.254
4.924,-0.230
4.925,-0.216
4.926,-0.210
4.927,-0.211
4.928,-0.225
4.929,-0.244
4.930,-0.270
4.931,-0.304
4.932,-0.345
4.933,-0.386
4.934,-0.424
4.935,-0.454
4.936,-0.486
4.937,-0.496
4.938,-0.496
4.939,-0.489
4.940,-0.421
4.941,-0.384
4.942,-0.304
4.943,-0.234
4.944,-0.170
4.945,-0.090
4.946,-0.006
4.947,0.086
4.948,0.176
4.949,0.268
4.950,0.359
4.951,0.454
4.952,0.549
4.953,0.647
4.954,0.749
4.955,0.859
4.956,0.989
4.957,1.119
4.958,1.289
4.959,1.464
4.960,1.866
4.961,1.996
4.962,2.126
4.963,2.191
4.964,2.199
4.965,2.139
4.966,2.049
4.967,1.930
4.968,1.774
4.969,1.595
4.970,1.406
4.971,1.209
4.972,1.019
4.973,0.836
4.974,0.666
4.975,0.487
4.976,0.328
4.977,0.175
4.978,0.051
4.979,-0.054
4.980,-0.216
4.981,-0.268
4.982,-0.311
4.983,-0.351
4.984,-0.381
4.985,-0.416
4.986,-0.446
4.987,-0.486
4.988,-0.524
4.989,-0.561
4.990,-0.594
4.991,-0.624
4.992,-0.651
4.993,-0.656
4.994,-0.652
4.995,-0.632
4.996,-0.614
4.997,-0.573
4.998,-0.541
4.999,-0.500
5.000,-0.410
5.001,-0.352
5.002,-0.340
5.003,-0.331
5.004,-0.333
5.005,-0.347
5.006,-0.361
5.007,-0.376
5.008,-0.405
5.009,-0.427
5.010,-0.453
5.011,-0.464
5.012,-0.464
5.013,-0.456
5.014,-0.434
5.015,-0.414
5.016,-0.386
5.017,-0.361
5.018,-0.338
5.019,-0.312
5.020,-0.309
5.021,-0.321
5.022,-0.336
5.023,-0.356
5.024,-0.371
5.025,-0.401
5.026,-0.424
5.027,-0.441
5.028,-0.455
5.029,-0.466
5.030,-0.468
5.031,-0.463
5.032,-0.451
5.033,-0.426
5.034,-0.404
5.035,-0.370
5.036,-0.344
5.037,-0.312
5.038,-0.291
5.039,-0.271
5.040,-0.274
5.041,-0.284
5.042,-0.301
5.043,-0.330
5.044,-0.362
5.045,-0.386
5.046,-0.416
5.047,-0.436
5.048,-0.453
5.049,-0.454
5.050,-0.450
5.051,-0.441
5.052,-0.424
5.053,-0.405
5.054,-0.366
5.055,-0.329
5.056,-0.286
5.057,-0.263
5.058,-0.241
5.059,-0.229
5.060,-0.251
5.061,-0.271
5.062,-0.290
5.063,-0.307
5.064,-0.331
5.065,-0.354
5.066,-0.374
5.067,-0.386
5.068,-0.391
5.069,-0.389
5.070,-0.383
5.071,-0.362
5.072,-0.340
5.073,-0.309
5.074,-0.286
5.075,-0.260
5.076,-0.226
5.077,-0.203
5.078,-0.189
5.079,-0.180
5.080,-0.195
5.081,-0.216
5.082,-0.249
5.083,-0.273
5.084,-0.296
5.085,-0.328
5.086,-0.341
5.087,-0.346
5.088,-0.344
5.089,-0.333
5.090,-0.309
5.091,-0.281
5.092,-0.246
5.093,-0.214
5.094,-0.190
5.095,-0.170
5.096,-0.151
5.097,-0.145
5.098,-0.149
5.099,-0.165
5.100,-0.210
5.101,-0.230
5.102,-0.266
5.103,-0.287
5.104,-0.307
5.105,-0.324
5.106,-0.333
5.107,-0.329
5.108,-0.321
5.109,-0.297
5.110,-0.274
5.111,-0.253
5.112,-0.220
5.113,-0.190
5.114,-0.170
5.115,-0.151
5.116,-0.144
5.117,-0.146
5.118,-0.161
5.119,-0.184
5.120,-0.261
5.121,-0.285
5.122,-0.314
5.123,-0.336
5.124,-0.351
5.125,-0.345
5.126,-0.330
5.127,-0.309
5.128,-0.280
5.129,-0.241
5.130,-0.203
5.131,-0.165
5.132,-0.129
5.133,-0.096
5.134,-0.071
5.135,-0.051
5.136,-0.041
5.137,-0.044
5.138,-0.051
5.139,-0.081
5.140,-0.145
5.141,-0.174
5.142,-0.204
5.143,-0.221
5.144,-0.233
5.145,-0.231
5.146,-0.228
5.147,-0.204
5.148,-0.180
5.149,-0.144
5.150,-0.111
5.151,-0.072
5.152,-0.049
5.153,-0.029
5.154,-0.021
5.155,-0.014
5.156,-0.024
5.157,-0.034
5.158,-0.054
5.159,-0.081
5.160,-0.131
5.161,-0.149
5.162,-0.164
5.163,-0.169
5.164,-0.169
5.165,-0.160
5.166,-0.138
5.167,-0.121
5.168,-0.096
5.169,-0.066
5.170,-0.034
5.171,-0.009
5.172,0.021
5.173,0.034
5.174,0.034
5.175,0.029
5.176,0.014
5.177,-0.014
5.178,-0.046
5.179,-0.072
5.180,-0.134
5.181,-0.151
5.182,-0.147
5.183,-0.139
5.184,-0.121
5.185,-0.092
5.186,-0.061
5.187,-0.029
5.188,0.006
5.189,0.033
5.190,0.054
5.191,0.059
5.192,0.069
5.193,0.069
5.194,0.056
5.195,0.036
5.196,0.009
5.197,-0.024
5.198,-0.046
5.199,-0.069
5.200,-0.107
5.201,-0.109
5.202,-0.102
5.203,-0.089
5.204,-0.065
5.205,-0.044
5.206,-0.021
5.207,0.011
5.208,0.028
5.209,0.039
5.210,0.046
5.211,0.034
5.212,0.021
5.213,-0.009
5.214,-0.043
5.215,-0.071
5.216,-0.114
5.217,-0.144
5.218,-0.171
5.219,-0.198
5.220,-0.221
5.221,-0.224
5.222,-0.221
5.223,-0.210
5.224,-0.190
5.225,-0.164
5.226,-0.125
5.227,-0.100
5.228,-0.071
5.229,-0.056
5.230,-0.061
5.231,-0.081
5.232,-0.100
5.233,-0.131
5.234,-0.176
5.235,-0.216
5.236,-0.256
5.237,-0.291
5.238,-0.311
5.239,-0.323
5.240,-0.310
5.241,-0.297
5.242,-0.273
5.243,-0.251
5.244,-0.216
5.245,-0.196
5.246,-0.182
5.247,-0.170
5.248,-0.170
5.249,-0.184
5.250,-0.201
5.251,-0.231
5.252,-0.269
5.253,-0.296
5.254,-0.326
5.255,-0.352
5.256,-0.374
5.257,-0.391
5.258,-0.405
5.259,-0.403
5.260,-0.369
5.261,-0.350
5.262,-0.326
5.263,-0.291
5.264,-0.264
5.265,-0.241
5.266,-0.216
5.267,-0.210
5.268,-0.209
5.269,-0.211
5.270,-0.241
5.271,-0.266
5.272,-0.294
5.273,-0.326
5.274,-0.349
5.275,-0.371
5.276,-0.389
5.277,-0.404
5.278,-0.406
5.279,-0.403
5.280,-0.355
5.281,-0.336
5.282,-0.311
5.283,-0.289
5.284,-0.271
5.285,-0.266
5.286,-0.261
5.287,-0.261
5.288,-0.274
5.289,-0.304
5.290,-0.331
5.291,-0.366
5.292,-0.390
5.293,-0.414
5.294,-0.429
5.295,-0.441
5.296,-0.445
5.297,-0.434
5.298,-0.416
5.299,-0.385
5.300,-0.314
5.301,-0.291
5.302,-0.266
5.303,-0.241
5.304,-0.223
5.305,-0.216
5.306,-0.214
5.307,-0.224
5.308,-0.246
5.309,-0.281
5.310,-0.321
5.311,-0.354
5.312,-0.383
5.313,-0.414
5.314,-0.434
5.315,-0.446
5.316,-0.449
5.317,-0.449
5.318,-0.434
5.319,-0.409
5.320,-0.329
5.321,-0.299
5.322,-0.264
5.323,-0.245
5.324,-0.229
5.325,-0.228
5.326,-0.245
5.327,-0.266
5.328,-0.295
5.329,-0.329
5.330,-0.352
5.331,-0.376
5.332,-0.404
5.333,-0.414
5.334,-0.411
5.335,-0.401
5.336,-0.374
5.337,-0.349
5.338,-0.329
5.339,-0.301
5.340,-0.251
5.341,-0.241
5.342,-0.228
5.343,-0.228
5.344,-0.241
5.345,-0.254
5.346,-0.281
5.347,-0.310
5.348,-0.344
5.349,-0.376
5.350,-0.411
5.351,-0.431
5.352,-0.454
5.353,-0.451
5.354,-0.450
5.355,-0.426
5.356,-0.406
5.357,-0.374
5.358,-0.344
5.359,-0.306
5.360,-0.249
5.361,-0.228
5.362,-0.230
5.363,-0.246
5.364,-0.266
5.365,-0.292
5.366,-0.329
5.367,-0.352
5.368,-0.371
5.369,-0.388
5.370,-0.400
5.371,-0.389
5.372,-0.384
5.373,-0.367
5.374,-0.355
5.375,-0.334
5.376,-0.307
5.377,-0.289
5.378,-0.266
5.379,-0.251
5.380,-0.244
5.381,-0.253
5.382,-0.266
5.383,-0.281
5.384,-0.297
5.385,-0.329
5.386,-0.349
5.387,-0.367
5.388,-0.384
5.389,-0.383
5.390,-0.381
5.391,-0.367
5.392,-0.349
5.393,-0.312
5.394,-0.286
5.395,-0.261
5.396,-0.229
5.397,-0.210
5.398,-0.201
5.399,-0.201
5.400,-0.214
5.401,-0.231
5.402,-0.261
5.403,-0.281
5.404,-0.307
5.405,-0.341
5.406,-0.356
5.407,-0.375
5.408,-0.386
5.409,-0.388
5.410,-0.385
5.411,-0.365
5.412,-0.336
5.413,-0.306
5.414,-0.281
5.415,-0.255
5.416,-0.231
5.417,-0.221
5.418,-0.216
5.419,-0.221
5.420,-0.268
5.421,-0.295
5.422,-0.336
5.423,-0.385
5.424,-0.412
5.425,-0.436
5.426,-0.448
5.427,-0.451
5.428,-0.444
5.429,-0.426
5.430,-0.405
5.431,-0.371
5.432,-0.341
5.433,-0.304
5.434,-0.275
5.435,-0.251
5.436,-0.230
5.437,-0.224
5.438,-0.225
5.439,-0.226
5.440,-0.264
5.441,-0.289
5.442,-0.323
5.443,-0.346
5.444,-0.370
5.445,-0.384
5.446,-0.391
5.447,-0.401
5.448,-0.394
5.449,-0.385
5.450,-0.369
5.451,-0.343
5.452,-0.311
5.453,-0.276
5.454,-0.251
5.455,-0.229
5.456,-0.226
5.457,-0.229
5.458,-0.246
5.459,-0.261
5.460,-0.301
5.461,-0.329
5.462,-0.349
5.463,-0.365
5.464,-0.369
5.465,-0.371
5.466,-0.369
5.467,-0.356
5.468,-0.344
5.469,-0.330
5.470,-0.310
5.471,-0.294
5.472,-0.286
5.473,-0.276
5.474,-0.281
5.475,-0.286
5.476,-0.290
5.477,-0.304
5.478,-0.324
5.479,-0.345
5.480,-0.372
5.481,-0.386
5.482,-0.390
5.483,-0.385
5.484,-0.375
5.485,-0.369
5.486,-0.347
5.487,-0.311
5.488,-0.286
5.489,-0.255
5.490,-0.230
5.491,-0.205
5.492,-0.189
5.493,-0.171
5.494,-0.169
5.495,-0.171
5.496,-0.176
5.497,-0.191
5.498,-0.214
5.499,-0.246
5.500,-0.296
5.501,-0.321
5.502,-0.335
5.503,-0.344
5.504,-0.349
5.505,-0.341
5.506,-0.329
5.507,-0.310
5.508,-0.284
5.509,-0.261
5.510,-0.229
5.511,-0.204
5.512,-0.185
5.513,-0.168
5.514,-0.154
5.515,-0.161
5.516,-0.166
5.517,-0.182
5.518,-0.204
5.519,-0.234
5.520,-0.304
5.521,-0.321
5.522,-0.306
5.523,-0.289
5.524,-0.266
5.525,-0.244
5.526,-0.206
5.527,-0.171
5.528,-0.147
5.529,-0.129
5.530,-0.131
5.531,-0.138
5.532,-0.163
5.533,-0.186
5.534,-0.212
5.535,-0.226
5.536,-0.241
5.537,-0.246
5.538,-0.255
5.539,-0.256
5.540,-0.241
5.541,-0.195
5.542,-0.172
5.543,-0.144
5.544,-0.121
5.545,-0.101
5.546,-0.080
5.547,-0.069
5.548,-0.059
5.549,-0.061
5.550,-0.064
5.551,-0.081
5.552,-0.095
5.553,-0.121
5.554,-0.139
5.555,-0.169
5.556,-0.194
5.557,-0.214
5.558,-0.234
5.559,-0.254
5.560,-0.241
5.561,-0.224
5.562,-0.198
5.563,-0.171
5.564,-0.141
5.565,-0.114
5.566,-0.101
5.567,-0.091
5.568,-0.095
5.569,-0.109
5.570,-0.133
5.571,-0.166
5.572,-0.196
5.573,-0.230
5.574,-0.269
5.575,-0.304
5.576,-0.336
5.577,-0.366
5.578,-0.384
5.579,-0.400
5.580,-0.362
5.581,-0.341
5.582,-0.301
5.583,-0.275
5.584,-0.249
5.585,-0.224
5.586,-0.198
5.587,-0.189
5.588,-0.189
5.589,-0.203
5.590,-0.219
5.591,-0.246
5.592,-0.270
5.593,-0.294
5.594,-0.325
5.595,-0.341
5.596,-0.349
5.597,-0.351
5.598,-0.355
5.599,-0.354
5.600,-0.321
5.601,-0.289
5.602,-0.270
5.603,-0.244
5.604,-0.221
5.605,-0.210
5.606,-0.209
5.607,-0.219
5.608,-0.229
5.609,-0.254
5.610,-0.274
5.611,-0.306
5.612,-0.336
5.613,-0.361
5.614,-0.376
5.615,-0.384
5.616,-0.379
5.617,-0.370
5.618,-0.349
5.619,-0.325
5.620,-0.260
5.621,-0.230
5.622,-0.206
5.623,-0.191
5.624,-0.175
5.625,-0.169
5.626,-0.166
5.627,-0.180
5.628,-0.203
5.629,-0.241
5.630,-0.271
5.631,-0.311
5.632,-0.344
5.633,-0.371
5.634,-0.383
5.635,-0.384
5.636,-0.367
5.637,-0.346
5.638,-0.306
5.639,-0.271
5.640,-0.191
5.641,-0.169
5.642,-0.141
5.643,-0.134
5.644,-0.131
5.645,-0.147
5.646,-0.181
5.647,-0.211
5.648,-0.249
5.649,-0.286
5.650,-0.321
5.651,-0.350
5.652,-0.381
5.653,-0.406
5.654,-0.414
5.655,-0.414
5.656,-0.409
5.657,-0.391
5.658,-0.371
5.659,-0.351
5.660,-0.285
5.661,-0.261
5.662,-0.233
5.663,-0.214
5.664,-0.206
5.665,-0.204
5.666,-0.204
5.667,-0.191
5.668,-0.175
5.669,-0.142
5.670,-0.096
5.671,-0.031
5.672,0.064
5.673,0.166
5.674,0.276
5.675,0.390
5.676,0.525
5.677,0.661
5.678,0.791
5.679,0.938
5.680,1.290
5.681,1.429
5.682,1.596
5.683,1.776
5.684,1.929
5.685,2.046
5.686,2.125
5.687,2.154
5.688,2.130
5.689,2.064
5.690,1.960
5.691,1.834
5.692,1.706
5.693,1.564
5.694,1.414
5.695,1.266
5.696,1.113
5.697,0.966
5.698,0.819
5.699,0.671
5.700,0.344
5.701,0.225
5.702,0.071
5.703,-0.058
5.704,-0.186
5.705,-0.304
5.706,-0.406
5.707,-0.501
5.708,-0.566
5.709,-0.615
5.710,-0.649
5.711,-0.666
5.712,-0.666
5.713,-0.654
5.714,-0.631
5.715,-0.603
5.716,-0.570
5.717,-0.532
5.718,-0.492
5.719,-0.450
5.720,-0.388
5.721,-0.381
5.722,-0.386
5.723,-0.409
5.724,-0.434
5.725,-0.458
5.726,-0.491
5.727,-0.516
5.728,-0.530
5.729,-0.532
5.730,-0.526
5.731,-0.506
5.732,-0.486
5.733,-0.451
5.734,-0.421
5.735,-0.388
5.736,-0.355
5.737,-0.329
5.738,-0.301
5.739,-0.286
5.740,-0.294
5.741,-0.306
5.742,-0.329
5.743,-0.356
5.744,-0.384
5.745,-0.411
5.746,-0.432
5.747,-0.450
5.748,-0.455
5.749,-0.455
5.750,-0.445
5.751,-0.424
5.752,-0.390
5.753,-0.356
5.754,-0.329
5.755,-0.301
5.756,-0.281
5.757,-0.264
5.758,-0.261
5.759,-0.266
5.760,-0.304
5.761,-0.329
5.762,-0.351
5.763,-0.386
5.764,-0.409
5.765,-0.431
5.766,-0.446
5.767,-0.449
5.768,-0.444
5.769,-0.427
5.770,-0.401
5.771,-0.371
5.772,-0.349
5.773,-0.321
5.774,-0.294
5.775,-0.274
5.776,-0.260
5.777,-0.254
5.778,-0.255
5.779,-0.269
5.780,-0.326
5.781,-0.349
5.782,-0.378
5.783,-0.409
5.784,-0.429
5.785,-0.431
5.786,-0.434
5.787,-0.410
5.788,-0.384
5.789,-0.361
5.790,-0.329
5.791,-0.294
5.792,-0.269
5.793,-0.253
5.794,-0.241
5.795,-0.230
5.796,-0.231
5.797,-0.234
5.798,-0.250
5.799,-0.264
5.800,-0.306
5.801,-0.323
5.802,-0.343
5.803,-0.356
5.804,-0.367
5.805,-0.371
5.806,-0.372
5.807,-0.362
5.808,-0.336
5.809,-0.304
5.810,-0.270
5.811,-0.234
5.812,-0.214
5.813,-0.195
5.814,-0.190
5.815,-0.196
5.816,-0.209
5.817,-0.226
5.818,-0.244
5.819,-0.256
5.820,-0.304
5.821,-0.326
5.822,-0.345
5.823,-0.355
5.824,-0.364
5.825,-0.364
5.826,-0.351
5.827,-0.335
5.828,-0.309
5.829,-0.289
5.830,-0.269
5.831,-0.254
5.832,-0.233
5.833,-0.224
5.834,-0.214
5.835,-0.209
5.836,-0.211
5.837,-0.216
5.838,-0.229
5.839,-0.244
5.840,-0.275
5.841,-0.289
5.842,-0.295
5.843,-0.296
5.844,-0.276
5.845,-0.234
5.846,-0.206
5.847,-0.174
5.848,-0.144
5.849,-0.125
5.850,-0.110
5.851,-0.109
5.852,-0.111
5.853,-0.126
5.854,-0.149
5.855,-0.174
5.856,-0.204
5.857,-0.226
5.858,-0.254
5.859,-0.269
5.860,-0.282
5.861,-0.269
5.862,-0.251
5.863,-0.223
5.864,-0.186
5.865,-0.147
5.866,-0.116
5.867,-0.085
5.868,-0.064
5.869,-0.051
5.870,-0.061
5.871,-0.071
5.872,-0.101
5.873,-0.128
5.874,-0.168
5.875,-0.196
5.876,-0.226
5.877,-0.256
5.878,-0.284
5.879,-0.281
5.880,-0.221
5.881,-0.189
5.882,-0.151
5.883,-0.124
5.884,-0.101
5.885,-0.074
5.886,-0.056
5.887,-0.046
5.888,-0.035
5.889,-0.044
5.890,-0.048
5.891,-0.062
5.892,-0.081
5.893,-0.101
5.894,-0.121
5.895,-0.146
5.896,-0.166
5.897,-0.176
5.898,-0.180
5.899,-0.176
5.900,-0.120
5.901,-0.081
5.902,-0.041
5.903,-0.011
5.904,0.030
5.905,0.046
5.906,0.051
5.907,0.050
5.908,0.039
5.909,0.021
5.910,-0.016
5.911,-0.050
5.912,-0.090
5.913,-0.121
5.914,-0.144
5.915,-0.163
5.916,-0.164
5.917,-0.154
5.918,-0.144
5.919,-0.126
5.920,-0.071
5.921,-0.046
5.922,-0.014
5.923,0.015
5.924,0.037
5.925,0.029
5.926,0.019
5.927,-0.011
5.928,-0.031
5.929,-0.065
5.930,-0.106
5.931,-0.145
5.932,-0.174
5.933,-0.191
5.934,-0.204
5.935,-0.206
5.936,-0.195
5.937,-0.182
5.938,-0.165
5.939,-0.144
5.940,-0.109
5.941,-0.096
5.942,-0.090
5.943,-0.094
5.944,-0.101
5.945,-0.109
5.946,-0.125
5.947,-0.146
5.948,-0.181
5.949,-0.210
5.950,-0.245
5.951,-0.281
5.952,-0.309
5.953,-0.331
5.954,-0.334
5.955,-0.329
5.956,-0.306
5.957,-0.285
5.958,-0.261
5.959,-0.226
5.960,-0.176
5.961,-0.169
5.962,-0.164
5.963,-0.171
5.964,-0.191
5.965,-0.221
5.966,-0.261
5.967,-0.290
5.968,-0.328
5.969,-0.355
5.970,-0.378
5.971,-0.401
5.972,-0.406
5.973,-0.401
5.974,-0.391
5.975,-0.374
5.976,-0.361
5.977,-0.340
5.978,-0.321
5.979,-0.294
5.980,-0.250
5.981,-0.245
5.982,-0.241
5.983,-0.244
5.984,-0.261
5.985,-0.281
5.986,-0.302
5.987,-0.334
5.988,-0.354
5.989,-0.383
5.990,-0.406
5.991,-0.414
5.992,-0.416
5.993,-0.414
5.994,-0.401
5.995,-0.376
5.996,-0.349
5.997,-0.309
5.998,-0.275
5.999,-0.244
6.000,-0.196
6.001,-0.193
6.002,-0.204
6.003,-0.245
6.004,-0.269
6.005,-0.296
6.006,-0.331
6.007,-0.357
6.008,-0.371
6.009,-0.376
6.010,-0.374
6.011,-0.370
6.012,-0.351
6.013,-0.334
6.014,-0.314
6.015,-0.287
6.016,-0.265
6.017,-0.244
6.018,-0.224
6.019,-0.214
6.020,-0.196
6.021,-0.221
6.022,-0.235
6.023,-0.266
6.024,-0.290
6.025,-0.321
6.026,-0.336
6.027,-0.350
6.028,-0.364
6.029,-0.371
6.030,-0.364
6.031,-0.347
6.032,-0.326
6.033,-0.295
6.034,-0.273
6.035,-0.254
6.036,-0.242
6.037,-0.231
6.038,-0.226
6.039,-0.223
6.040,-0.249
6.041,-0.266
6.042,-0.289
6.043,-0.314
6.044,-0.344
6.045,-0.357
6.046,-0.370
6.047,-0.370
6.048,-0.364
6.049,-0.344
6.050,-0.311
6.051,-0.276
6.052,-0.247
6.053,-0.214
6.054,-0.195
6.055,-0.182
6.056,-0.176
6.057,-0.182
6.058,-0.194
6.059,-0.214
6.060,-0.266
6.061,-0.286
6.062,-0.311
6.063,-0.329
6.064,-0.344
6.065,-0.349
6.066,-0.351
6.067,-0.349
6.068,-0.334
6.069,-0.306
6.070,-0.284
6.071,-0.256
6.072,-0.230
6.073,-0.207
6.074,-0.184
6.075,-0.171
6.076,-0.166
6.077,-0.170
6.078,-0.189
6.079,-0.209
6.080,-0.268
6.081,-0.294
6.082,-0.306
6.083,-0.324
6.084,-0.338
6.085,-0.338
6.086,-0.328
6.087,-0.309
6.088,-0.287
6.089,-0.260
6.090,-0.230
6.091,-0.207
6.092,-0.190
6.093,-0.181
6.094,-0.171
6.095,-0.171
6.096,-0.180
6.097,-0.184
6.098,-0.196
6.099,-0.220
6.100,-0.280
6.101,-0.299
6.102,-0.321
6.103,-0.343
6.104,-0.351
6.105,-0.356
6.106,-0.349
6.107,-0.336
6.108,-0.309
6.109,-0.276
6.110,-0.245
6.111,-0.206
6.112,-0.175
6.113,-0.161
6.114,-0.146
6.115,-0.149
6.116,-0.169
6.117,-0.196
6.118,-0.224
6.119,-0.254
6.120,-0.312
6.121,-0.331
6.122,-0.336
6.123,-0.331
6.124,-0.326
6.125,-0.295
6.126,-0.273
6.127,-0.251
6.128,-0.224
6.129,-0.204
6.130,-0.186
6.131,-0.174
6.132,-0.166
6.133,-0.152
6.134,-0.161
6.135,-0.172
6.136,-0.194
6.137,-0.221
6.138,-0.261
6.139,-0.289
6.140,-0.325
6.141,-0.329
6.142,-0.329
6.143,-0.321
6.144,-0.302
6.145,-0.282
6.146,-0.255
6.147,-0.224
6.148,-0.188
6.149,-0.166
6.150,-0.145
6.151,-0.144
6.152,-0.149
6.153,-0.169
6.154,-0.184
6.155,-0.205
6.156,-0.224
6.157,-0.251
6.158,-0.284
6.159,-0.321
6.160,-0.347
6.161,-0.352
6.162,-0.349
6.163,-0.343
6.164,-0.314
6.165,-0.291
6.166,-0.264
6.167,-0.226
6.168,-0.194
6.169,-0.164
6.170,-0.134
6.171,-0.120
6.172,-0.113
6.173,-0.125
6.174,-0.134
6.175,-0.149
6.176,-0.176
6.177,-0.206
6.178,-0.244
6.179,-0.270
6.180,-0.321
6.181,-0.321
6.182,-0.312
6.183,-0.292
6.184,-0.271
6.185,-0.234
6.186,-0.206
6.187,-0.182
6.188,-0.161
6.189,-0.145
6.190,-0.141
6.191,-0.134
6.192,-0.138
6.193,-0.149
6.194,-0.169
6.195,-0.191
6.196,-0.209
6.197,-0.229
6.198,-0.249
6.199,-0.255
6.200,-0.249
6.201,-0.241
6.202,-0.217
6.203,-0.201
6.204,-0.170
6.205,-0.134
6.206,-0.101
6.207,-0.070
6.208,-0.050
6.209,-0.036
6.210,-0.041
6.211,-0.054
6.212,-0.071
6.213,-0.106
6.214,-0.138
6.215,-0.176
6.216,-0.211
6.217,-0.244
6.218,-0.266
6.219,-0.282
6.220,-0.269
6.221,-0.205
6.222,-0.169
6.223,-0.116
6.224,-0.071
6.225,-0.031
6.226,-0.006
6.227,0.024
6.228,0.029
6.229,0.024
6.230,0.007
6.231,-0.024
6.232,-0.046
6.233,-0.072
6.234,-0.104
6.235,-0.129
6.236,-0.134
6.237,-0.149
6.238,-0.146
6.239,-0.128
6.240,-0.066
6.241,-0.049
6.242,-0.022
6.243,0.007
6.244,0.019
6.245,0.024
6.246,0.021
6.247,-0.006
6.248,-0.029
6.249,-0.068
6.250,-0.111
6.251,-0.164
6.252,-0.209
6.253,-0.250
6.254,-0.286
6.255,-0.291
6.256,-0.292
6.257,-0.281
6.258,-0.256
6.259,-0.228
6.260,-0.151
6.261,-0.126
6.262,-0.107
6.263,-0.100
6.264,-0.101
6.265,-0.106
6.266,-0.116
6.267,-0.142
6.268,-0.171
6.269,-0.207
6.270,-0.245
6.271,-0.271
6.272,-0.296
6.273,-0.321
6.274,-0.331
6.275,-0.331
6.276,-0.321
6.277,-0.299
6.278,-0.281
6.279,-0.254
6.280,-0.206
6.281,-0.186
6.282,-0.163
6.283,-0.149
6.284,-0.129
6.285,-0.129
6.286,-0.136
6.287,-0.161
6.288,-0.186
6.289,-0.210
6.290,-0.234
6.291,-0.263
6.292,-0.281
6.293,-0.294
6.294,-0.296
6.295,-0.294
6.296,-0.285
6.297,-0.266
6.298,-0.241
6.299,-0.206
6.300,-0.146
6.301,-0.131
6.302,-0.120
6.303,-0.116
6.304,-0.124
6.305,-0.131
6.306,-0.146
6.307,-0.175
6.308,-0.196
6.309,-0.231
6.310,-0.269
6.311,-0.294
6.312,-0.310
6.313,-0.311
6.314,-0.310
6.315,-0.294
6.316,-0.276
6.317,-0.251
6.318,-0.230
6.319,-0.205
6.320,-0.166
6.321,-0.154
6.322,-0.152
6.323,-0.151
6.324,-0.166
6.325,-0.186
6.326,-0.211
6.327,-0.241
6.328,-0.264
6.329,-0.284
6.330,-0.294
6.331,-0.302
6.332,-0.306
6.333,-0.281
6.334,-0.261
6.335,-0.231
6.336,-0.205
6.337,-0.174
6.338,-0.149
6.339,-0.142
6.340,-0.151
6.341,-0.184
6.342,-0.214
6.343,-0.261
6.344,-0.310
6.345,-0.361
6.346,-0.409
6.347,-0.444
6.348,-0.471
6.349,-0.486
6.350,-0.485
6.351,-0.469
6.352,-0.441
6.353,-0.404
6.354,-0.355
6.355,-0.302
6.356,-0.255
6.357,-0.201
6.358,-0.151
6.359,-0.095
6.360,0.035
6.361,0.094
6.362,0.159
6.363,0.236
6.364,0.316
6.365,0.411
6.366,0.509
6.367,0.611
6.368,0.726
6.369,0.850
6.370,0.991
6.371,1.149
6.372,1.330
6.373,1.542
6.374,1.749
6.375,1.971
6.376,2.160
6.377,2.306
6.378,2.389
6.379,2.393
6.380,2.206
6.381,1.830
6.382,1.610
6.383,1.405
6.384,1.191
6.385,1.008
6.386,0.819
6.387,0.635
6.388,0.489
6.389,0.334
6.390,0.199
6.391,0.086
6.392,-0.016
6.393,-0.096
6.394,-0.171
6.395,-0.230
6.396,-0.281
6.397,-0.336
6.398,-0.389
6.399,-0.431
6.400,-0.534
6.401,-0.589
6.402,-0.614
6.403,-0.624
6.404,-0.630
6.405,-0.614
6.406,-0.606
6.407,-0.564
6.408,-0.530
6.409,-0.435
6.410,-0.404
6.411,-0.369
6.412,-0.336
6.413,-0.310
6.414,-0.301
6.415,-0.306
6.416,-0.314
6.417,-0.341
6.418,-0.361
6.419,-0.389
6.420,-0.468
6.421,-0.491
6.422,-0.507
6.423,-0.506
6.424,-0.501
6.425,-0.484
6.426,-0.464
6.427,-0.386
6.428,-0.349
6.429,-0.311
6.430,-0.271
6.431,-0.254
6.432,-0.250
6.433,-0.246
6.434,-0.251
6.435,-0.271
6.436,-0.289
6.437,-0.321
6.438,-0.349
6.439,-0.375
6.440,-0.426
6.441,-0.434
6.442,-0.436
6.443,-0.425
6.444,-0.404
6.445,-0.364
6.446,-0.328
6.447,-0.282
6.448,-0.251
6.449,-0.226
6.450,-0.214
6.451,-0.211
6.452,-0.219
6.453,-0.234
6.454,-0.261
6.455,-0.285
6.456,-0.321
6.457,-0.346
6.458,-0.376
6.459,-0.406
6.460,-0.429
6.461,-0.421
6.462,-0.406
6.463,-0.374
6.464,-0.336
6.465,-0.304
6.466,-0.274
6.467,-0.244
6.468,-0.224
6.469,-0.211
6.470,-0.206
6.471,-0.211
6.472,-0.225
6.473,-0.251
6.474,-0.281
6.475,-0.311
6.476,-0.347
6.477,-0.366
6.478,-0.384
6.479,-0.388
6.480,-0.378
6.481,-0.362
6.482,-0.344
6.483,-0.285
6.484,-0.266
6.485,-0.236
6.486,-0.211
6.487,-0.196
6.488,-0.191
6.489,-0.191
6.490,-0.206
6.491,-0.216
6.492,-0.246
6.493,-0.270
6.494,-0.294
6.495,-0.321
6.496,-0.335
6.497,-0.346
6.498,-0.349
6.499,-0.344
6.500,-0.326
6.501,-0.266
6.502,-0.231
6.503,-0.209
6.504,-0.186
6.505,-0.176
6.506,-0.171
6.507,-0.174
6.508,-0.186
6.509,-0.204
6.510,-0.241
6.511,-0.270
6.512,-0.305
6.513,-0.334
6.514,-0.355
6.515,-0.371
6.516,-0.371
6.517,-0.361
6.518,-0.336
6.519,-0.310
6.520,-0.242
6.521,-0.211
6.522,-0.181
6.523,-0.147
6.524,-0.141
6.525,-0.130
6.526,-0.134
6.527,-0.151
6.528,-0.165
6.529,-0.180
6.530,-0.204
6.531,-0.216
6.532,-0.234
6.533,-0.258
6.534,-0.270
6.535,-0.281
6.536,-0.285
6.537,-0.271
6.538,-0.249
6.539,-0.212
6.540,-0.139
6.541,-0.121
6.542,-0.104
6.543,-0.086
6.544,-0.083
6.545,-0.084
6.546,-0.089
6.547,-0.096
6.548,-0.113
6.549,-0.134
6.550,-0.151
6.551,-0.181
6.552,-0.198
6.553,-0.211
6.554,-0.217
6.555,-0.206
6.556,-0.190
6.557,-0.171
6.558,-0.146
6.559,-0.115
6.560,-0.056
6.561,-0.044
6.562,-0.034
6.563,-0.030
6.564,-0.034
6.565,-0.046
6.566,-0.071
6.567,-0.104
6.568,-0.128
6.569,-0.161
6.570,-0.185
6.571,-0.210
6.572,-0.214
6.573,-0.216
6.574,-0.206
6.575,-0.189
6.576,-0.151
6.577,-0.121
6.578,-0.085
6.579,-0.050
6.580,0.010
6.581,0.025
6.582,0.026
6.583,0.021
6.584,-0.013
6.585,-0.041
6.586,-0.069
6.587,-0.102
6.588,-0.129
6.589,-0.150
6.590,-0.164
6.591,-0.164
6.592,-0.150
6.593,-0.131
6.594,-0.114
6.595,-0.091
6.596,-0.056
6.597,-0.029
6.598,-0.007
6.599,0.019
6.600,0.039
6.601,0.034
6.602,0.014
6.603,-0.009
6.604,-0.036
6.605,-0.066
6.606,-0.109
6.607,-0.141
6.608,-0.164
6.609,-0.176
6.610,-0.181
6.611,-0.175
6.612,-0.161
6.613,-0.141
6.614,-0.124
6.615,-0.101
6.616,-0.081
6.617,-0.058
6.618,-0.036
6.619,-0.028
6.620,-0.026
6.621,-0.031
6.622,-0.056
6.623,-0.091
6.624,-0.131
6.625,-0.172
6.626,-0.210
6.627,-0.249
6.628,-0.269
6.629,-0.286
6.630,-0.287
6.631,-0.276
6.632,-0.266
6.633,-0.234
6.634,-0.211
6.635,-0.184
6.636,-0.154
6.637,-0.131
6.638,-0.121
6.639,-0.116
6.640,-0.138
6.641,-0.161
6.642,-0.191
6.643,-0.230
6.644,-0.264
6.645,-0.297
6.646,-0.341
6.647,-0.365
6.648,-0.381
6.649,-0.393
6.650,-0.390
6.651,-0.383
6.652,-0.364
6.653,-0.335
6.654,-0.309
6.655,-0.284
6.656,-0.270
6.657,-0.264
6.658,-0.265
6.659,-0.264
6.660,-0.289
6.661,-0.304
6.662,-0.325
6.663,-0.344
6.664,-0.357
6.665,-0.376
6.666,-0.391
6.667,-0.407
6.668,-0.410
6.669,-0.401
6.670,-0.378
6.671,-0.356
6.672,-0.329
6.673,-0.296
6.674,-0.274
6.675,-0.251
6.676,-0.246
6.677,-0.246
6.678,-0.251
6.679,-0.270
6.680,-0.329
6.681,-0.385
6.682,-0.426
6.683,-0.454
6.684,-0.484
6.685,-0.489
6.686,-0.482
6.687,-0.465
6.688,-0.431
6.689,-0.389
6.690,-0.349
6.691,-0.307
6.692,-0.273
6.693,-0.251
6.694,-0.241
6.695,-0.247
6.696,-0.261
6.697,-0.286
6.698,-0.311
6.699,-0.343
6.700,-0.406
6.701,-0.434
6.702,-0.453
6.703,-0.469
6.704,-0.464
6.705,-0.450
6.706,-0.427
6.707,-0.403
6.708,-0.367
6.709,-0.334
6.710,-0.294
6.711,-0.264
6.712,-0.231
6.713,-0.221
6.714,-0.221
6.715,-0.234
6.716,-0.256
6.717,-0.273
6.718,-0.296
6.719,-0.330
6.720,-0.403
6.721,-0.416
6.722,-0.425
6.723,-0.416
6.724,-0.409
6.725,-0.388
6.726,-0.366
6.727,-0.349
6.728,-0.321
6.729,-0.294
6.730,-0.276
6.731,-0.265
6.732,-0.253
6.733,-0.245
6.734,-0.242
6.735,-0.244
6.736,-0.246
6.737,-0.263
6.738,-0.282
6.739,-0.301
6.740,-0.344
6.741,-0.350
6.742,-0.344
6.743,-0.346
6.744,-0.314
6.745,-0.301
6.746,-0.276
6.747,-0.261
6.748,-0.242
6.749,-0.226
6.750,-0.214
6.751,-0.214
6.752,-0.224
6.753,-0.241
6.754,-0.264
6.755,-0.291
6.756,-0.324
6.757,-0.355
6.758,-0.381
6.759,-0.405
6.760,-0.406
6.761,-0.389
6.762,-0.356
6.763,-0.329
6.764,-0.292
6.765,-0.268
6.766,-0.244
6.767,-0.217
6.768,-0.194
6.769,-0.171
6.770,-0.164
6.771,-0.164
6.772,-0.174
6.773,-0.196
6.774,-0.221
6.775,-0.254
6.776,-0.290
6.777,-0.326
6.778,-0.346
6.779,-0.356
6.780,-0.369
6.781,-0.361
6.782,-0.351
6.783,-0.331
6.784,-0.310
6.785,-0.286
6.786,-0.260
6.787,-0.226
6.788,-0.198
6.789,-0.184
6.790,-0.174
6.791,-0.181
6.792,-0.191
6.793,-0.214
6.794,-0.246
6.795,-0.273
6.796,-0.299
6.797,-0.329
6.798,-0.350
6.799,-0.364
6.800,-0.355
6.801,-0.336
6.802,-0.306
6.803,-0.271
6.804,-0.242
6.805,-0.204
6.806,-0.176
6.807,-0.150
6.808,-0.131
6.809,-0.129
6.810,-0.142
6.811,-0.163
6.812,-0.185
6.813,-0.207
6.814,-0.245
6.815,-0.266
6.816,-0.296
6.817,-0.328
6.818,-0.343
6.819,-0.333
6.820,-0.284
6.821,-0.251
6.822,-0.216
6.823,-0.189
6.824,-0.161
6.825,-0.134
6.826,-0.114
6.827,-0.110
6.828,-0.109
6.829,-0.121
6.830,-0.144
6.831,-0.171
6.832,-0.195
6.833,-0.231
6.834,-0.264
6.835,-0.285
6.836,-0.299
6.837,-0.306
6.838,-0.302
6.839,-0.289
6.840,-0.245
6.841,-0.224
6.842,-0.205
6.843,-0.174
6.844,-0.149
6.845,-0.131
6.846,-0.129
6.847,-0.128
6.848,-0.131
6.849,-0.146
6.850,-0.164
6.851,-0.191
6.852,-0.229
6.853,-0.270
6.854,-0.307
6.855,-0.340
6.856,-0.349
6.857,-0.347
6.858,-0.341
6.859,-0.311
6.860,-0.242
6.861,-0.166
6.862,-0.131
6.863,-0.110
6.864,-0.101
6.865,-0.089
6.866,-0.086
6.867,-0.086
6.868,-0.101
6.869,-0.116
6.870,-0.144
6.871,-0.170
6.872,-0.189
6.873,-0.206
6.874,-0.214
6.875,-0.224
6.876,-0.224
6.877,-0.210
6.878,-0.191
6.879,-0.166
6.880,-0.111
6.881,-0.068
6.882,-0.056
6.883,-0.055
6.884,-0.066
6.885,-0.085
6.886,-0.106
6.887,-0.131
6.888,-0.154
6.889,-0.176
6.890,-0.184
6.891,-0.189
6.892,-0.189
6.893,-0.184
6.894,-0.171
6.895,-0.151
6.896,-0.134
6.897,-0.105
6.898,-0.069
6.899,-0.036
6.900,0.022
6.901,0.031
6.902,0.039
6.903,0.044
6.904,0.035
6.905,0.021
6.906,-0.006
6.907,-0.031
6.908,-0.062
6.909,-0.092
6.910,-0.114
6.911,-0.136
6.912,-0.149
6.913,-0.151
6.914,-0.141
6.915,-0.129
6.916,-0.106
6.917,-0.083
6.918,-0.061
6.919,-0.044
6.920,-0.031
6.921,-0.041
6.922,-0.055
6.923,-0.071
6.924,-0.091
6.925,-0.111
6.926,-0.133
6.927,-0.166
6.928,-0.184
6.929,-0.204
6.930,-0.217
6.931,-0.226
6.932,-0.234
6.933,-0.234
6.934,-0.230
6.935,-0.216
6.936,-0.210
6.937,-0.191
6.938,-0.181
6.939,-0.170
6.940,-0.171
6.941,-0.190
6.942,-0.204
6.943,-0.215
6.944,-0.234
6.945,-0.256
6.946,-0.275
6.947,-0.296
6.948,-0.321
6.949,-0.335
6.950,-0.341
6.951,-0.331
6.952,-0.304
6.953,-0.274
6.954,-0.246
6.955,-0.211
6.956,-0.195
6.957,-0.176
6.958,-0.171
6.959,-0.174
6.960,-0.199
6.961,-0.216
6.962,-0.247
6.963,-0.281
6.964,-0.334
6.965,-0.351
6.966,-0.365
6.967,-0.370
6.968,-0.366
6.969,-0.351
6.970,-0.333
6.971,-0.306
6.972,-0.274
6.973,-0.246
6.974,-0.209
6.975,-0.184
6.976,-0.169
6.977,-0.165
6.978,-0.174
6.979,-0.186
6.980,-0.234
6.981,-0.261
6.982,-0.299
6.983,-0.321
6.984,-0.341
6.985,-0.350
6.986,-0.346
6.987,-0.340
6.988,-0.311
6.989,-0.286
6.990,-0.255
6.991,-0.223
6.992,-0.189
6.993,-0.164
6.994,-0.144
6.995,-0.131
6.996,-0.136
6.997,-0.144
6.998,-0.161
6.999,-0.181
7.000,-0.242
7.001,-0.299
7.002,-0.312
7.003,-0.328
7.004,-0.330
7.005,-0.311
7.006,-0.289
7.007,-0.266
7.008,-0.241
7.009,-0.223
7.010,-0.207
7.011,-0.194
7.012,-0.184
7.013,-0.186
7.014,-0.201
7.015,-0.217
7.016,-0.251
7.017,-0.286
7.018,-0.325
7.019,-0.356
7.020,-0.414
7.021,-0.429
7.022,-0.441
7.023,-0.434
7.024,-0.421
7.025,-0.394
7.026,-0.362
7.027,-0.329
7.028,-0.286
7.029,-0.246
7.030,-0.150
7.031,-0.114
7.032,-0.071
7.033,-0.029
7.034,0.014
7.035,0.056
7.036,0.107
7.037,0.166
7.038,0.229
7.039,0.311
7.040,0.535
7.041,0.665
7.042,0.772
7.043,0.914
7.044,1.073
7.045,1.252
7.046,1.452
7.047,1.649
7.048,1.839
7.049,2.015
7.050,2.135
7.051,2.191
7.052,2.189
7.053,2.126
7.054,2.009
7.055,1.854
7.056,1.674
7.057,1.504
7.058,1.329
7.059,1.146
7.060,0.771
7.061,0.459
7.062,0.316
7.063,0.199
7.064,0.076
7.065,-0.022
7.066,-0.104
7.067,-0.175
7.068,-0.249
7.069,-0.309
7.070,-0.369
7.071,-0.424
7.072,-0.484
7.073,-0.534
7.074,-0.575
7.075,-0.610
7.076,-0.631
7.077,-0.654
7.078,-0.652
7.079,-0.646
7.080,-0.565
7.081,-0.522
7.082,-0.489
7.083,-0.441
7.084,-0.404
7.085,-0.374
7.086,-0.362
7.087,-0.364
7.088,-0.367
7.089,-0.376
7.090,-0.383
7.091,-0.401
7.092,-0.414
7.093,-0.431
7.094,-0.444
7.095,-0.456
7.096,-0.456
7.097,-0.449
7.098,-0.441
7.099,-0.411
7.100,-0.346
7.101,-0.304
7.102,-0.256
7.103,-0.231
7.104,-0.216
7.105,-0.207
7.106,-0.216
7.107,-0.244
7.108,-0.271
7.109,-0.306
7.110,-0.344
7.111,-0.383
7.112,-0.407
7.113,-0.426
7.114,-0.449
7.115,-0.450
7.116,-0.444
7.117,-0.416
7.118,-0.385
7.119,-0.350
7.120,-0.274
7.121,-0.223
7.122,-0.204
7.123,-0.196
7.124,-0.209
7.125,-0.214
7.126,-0.241
7.127,-0.269
7.128,-0.297
7.129,-0.331
7.130,-0.356
7.131,-0.371
7.132,-0.383
7.133,-0.389
7.134,-0.386
7.135,-0.371
7.136,-0.356
7.137,-0.331
7.138,-0.295
7.139,-0.275
7.140,-0.244
7.141,-0.241
7.142,-0.245
7.143,-0.249
7.144,-0.264
7.145,-0.274
7.146,-0.304
7.147,-0.321
7.148,-0.350
7.149,-0.354
7.150,-0.361
7.151,-0.364
7.152,-0.361
7.153,-0.352
7.154,-0.345
7.155,-0.330
7.156,-0.307
7.157,-0.286
7.158,-0.268
7.159,-0.249
7.160,-0.224
7.161,-0.216
7.162,-0.219
7.163,-0.224
7.164,-0.230
7.165,-0.245
7.166,-0.261
7.167,-0.282
7.168,-0.301
7.169,-0.311
7.170,-0.321
7.171,-0.307
7.172,-0.290
7.173,-0.266
7.174,-0.241
7.175,-0.206
7.176,-0.174
7.177,-0.149
7.178,-0.131
7.179,-0.121
7.180,-0.129
7.181,-0.136
7.182,-0.168
7.183,-0.189
7.184,-0.209
7.185,-0.241
7.186,-0.256
7.187,-0.275
7.188,-0.291
7.189,-0.295
7.190,-0.296
7.191,-0.294
7.192,-0.281
7.193,-0.254
7.194,-0.229
7.195,-0.198
7.196,-0.180
7.197,-0.154
7.198,-0.144
7.199,-0.136
7.200,-0.150
7.201,-0.164
7.202,-0.172
7.203,-0.196
7.204,-0.214
7.205,-0.245
7.206,-0.266
7.207,-0.282
7.208,-0.281
7.209,-0.273
7.210,-0.256
7.211,-0.233
7.212,-0.206
7.213,-0.171
7.214,-0.129
7.215,-0.095
7.216,-0.064
7.217,-0.045
7.218,-0.031
7.219,-0.031
7.220,-0.056
7.221,-0.106
7.222,-0.161
7.223,-0.174
7.224,-0.189
7.225,-0.194
7.226,-0.185
7.227,-0.174
7.228,-0.149
7.229,-0.122
7.230,-0.094
7.231,-0.062
7.232,-0.035
7.233,-0.009
7.234,0.009
7.235,0.019
7.236,0.019
7.237,-0.003
7.238,-0.024
7.239,-0.052
7.240,-0.113
7.241,-0.154
7.242,-0.169
7.243,-0.166
7.244,-0.151
7.245,-0.133
7.246,-0.100
7.247,-0.071
7.248,-0.034
7.249,-0.009
7.250,0.026
7.251,0.048
7.252,0.069
7.253,0.086
7.254,0.092
7.255,0.086
7.256,0.071
7.257,0.054
7.258,0.030
7.259,-0.009
7.260,-0.065
7.261,-0.084
7.262,-0.086
7.263,-0.085
7.264,-0.069
7.265,-0.044
7.266,-0.014
7.267,0.026
7.268,0.060
7.269,0.091
7.270,0.110
7.271,0.125
7.272,0.126
7.273,0.114
7.274,0.095
7.275,0.066
7.276,0.035
7.277,-0.004
7.278,-0.026
7.279,-0.052
7.280,-0.101
7.281,-0.104
7.282,-0.106
7.283,-0.101
7.284,-0.087
7.285,-0.064
7.286,-0.036
7.287,-0.010
7.288,0.025
7.289,0.043
7.290,0.049
7.291,0.046
7.292,0.031
7.293,0.011
7.294,-0.016
7.295,-0.049
7.296,-0.087
7.297,-0.124
7.298,-0.165
7.299,-0.184
7.300,-0.204
7.301,-0.206
7.302,-0.191
7.303,-0.171
7.304,-0.149
7.305,-0.115
7.306,-0.094
7.307,-0.084
7.308,-0.072
7.309,-0.086
7.310,-0.091
7.311,-0.109
7.312,-0.131
7.313,-0.163
7.314,-0.186
7.315,-0.216
7.316,-0.247
7.317,-0.269
7.318,-0.286
7.319,-0.292
7.320,-0.294
7.321,-0.284
7.322,-0.266
7.323,-0.242
7.324,-0.216
7.325,-0.198
7.326,-0.195
7.327,-0.204
7.328,-0.215
7.329,-0.247
7.330,-0.274
7.331,-0.306
7.332,-0.341
7.333,-0.366
7.334,-0.391
7.335,-0.410
7.336,-0.420
7.337,-0.414
7.338,-0.389
7.339,-0.359
7.340,-0.291
7.341,-0.261
7.342,-0.229
7.343,-0.196
7.344,-0.163
7.345,-0.130
7.346,-0.131
7.347,-0.135
7.348,-0.160
7.349,-0.181
7.350,-0.206
7.351,-0.241
7.352,-0.269
7.353,-0.304
7.354,-0.326
7.355,-0.344
7.356,-0.354
7.357,-0.355
7.358,-0.351
7.359,-0.341
7.360,-0.294
7.361,-0.271
7.362,-0.249
7.363,-0.226
7.364,-0.209
7.365,-0.201
7.366,-0.204
7.367,-0.214
7.368,-0.226
7.369,-0.241
7.370,-0.264
7.371,-0.284
7.372,-0.306
7.373,-0.331
7.374,-0.346
7.375,-0.352
7.376,-0.354
7.377,-0.346
7.378,-0.335
7.379,-0.321
7.380,-0.265
7.381,-0.242
7.382,-0.203
7.383,-0.198
7.384,-0.203
7.385,-0.209
7.386,-0.226
7.387,-0.261
7.388,-0.295
7.389,-0.321
7.390,-0.341
7.391,-0.356
7.392,-0.369
7.393,-0.375
7.394,-0.371
7.395,-0.362
7.396,-0.344
7.397,-0.324
7.398,-0.285
7.399,-0.254
7.400,-0.196
7.401,-0.168
7.402,-0.164
7.403,-0.166
7.404,-0.181
7.405,-0.194
7.406,-0.219
7.407,-0.250
7.408,-0.284
7.409,-0.320
7.410,-0.345
7.411,-0.364
7.412,-0.375
7.413,-0.375
7.414,-0.364
7.415,-0.346
7.416,-0.309
7.417,-0.269
7.418,-0.228
7.419,-0.201
7.420,-0.149
7.421,-0.141
7.422,-0.146
7.423,-0.161
7.424,-0.185
7.425,-0.211
7.426,-0.250
7.427,-0.271
7.428,-0.296
7.429,-0.314
7.430,-0.329
7.431,-0.343
7.432,-0.346
7.433,-0.334
7.434,-0.314
7.435,-0.292
7.436,-0.264
7.437,-0.228
7.438,-0.194
7.439,-0.169
7.440,-0.150
7.441,-0.164
7.442,-0.184
7.443,-0.211
7.444,-0.251
7.445,-0.276
7.446,-0.309
7.447,-0.330
7.448,-0.345
7.449,-0.351
7.450,-0.343
7.451,-0.331
7.452,-0.310
7.453,-0.274
7.454,-0.249
7.455,-0.214
7.456,-0.180
7.457,-0.150
7.458,-0.134
7.459,-0.121
7.460,-0.135
7.461,-0.154
7.462,-0.188
7.463,-0.225
7.464,-0.256
7.465,-0.289
7.466,-0.311
7.467,-0.354
7.468,-0.355
7.469,-0.351
7.470,-0.331
7.471,-0.306
7.472,-0.271
7.473,-0.229
7.474,-0.211
7.475,-0.190
7.476,-0.171
7.477,-0.164
7.478,-0.164
7.479,-0.171
7.480,-0.216
7.481,-0.249
7.482,-0.284
7.483,-0.320
7.484,-0.341
7.485,-0.356
7.486,-0.354
7.487,-0.345
7.488,-0.324
7.489,-0.292
7.490,-0.266
7.491,-0.231
7.492,-0.206
7.493,-0.184
7.494,-0.166
7.495,-0.149
7.496,-0.134
7.497,-0.131
7.498,-0.136
7.499,-0.154
7.500,-0.214
7.501,-0.231
7.502,-0.263
7.503,-0.284
7.504,-0.295
7.505,-0.297
7.506,-0.296
7.507,-0.289
7.508,-0.274
7.509,-0.250
7.510,-0.219
7.511,-0.189
7.512,-0.165
7.513,-0.141
7.514,-0.124
7.515,-0.113
7.516,-0.122
7.517,-0.142
7.518,-0.170
7.519,-0.204
7.520,-0.276
7.521,-0.301
7.522,-0.328
7.523,-0.349
7.524,-0.354
7.525,-0.346
7.526,-0.330
7.527,-0.304
7.528,-0.281
7.529,-0.246
7.530,-0.206
7.531,-0.166
7.532,-0.126
7.533,-0.101
7.534,-0.094
7.535,-0.101
7.536,-0.116
7.537,-0.146
7.538,-0.181
7.539,-0.214
7.540,-0.290
7.541,-0.306
7.542,-0.334
7.543,-0.330
7.544,-0.309
7.545,-0.286
7.546,-0.254
7.547,-0.223
7.548,-0.194
7.549,-0.166
7.550,-0.147
7.551,-0.129
7.552,-0.124
7.553,-0.121
7.554,-0.126
7.555,-0.136
7.556,-0.150
7.557,-0.180
7.558,-0.207
7.559,-0.233
7.560,-0.285
7.561,-0.304
7.562,-0.295
7.563,-0.284
7.564,-0.268
7.565,-0.244
7.566,-0.214
7.567,-0.181
7.568,-0.146
7.569,-0.121
7.570,-0.102
7.571,-0.090
7.572,-0.091
7.573,-0.106
7.574,-0.126
7.575,-0.149
7.576,-0.176
7.577,-0.204
7.578,-0.226
7.579,-0.246
7.580,-0.242
7.581,-0.224
7.582,-0.206
7.583,-0.180
7.584,-0.146
7.585,-0.121
7.586,-0.096
7.587,-0.084
7.588,-0.074
7.589,-0.068
7.590,-0.072
7.591,-0.090
7.592,-0.109
7.593,-0.131
7.594,-0.166
7.595,-0.186
7.596,-0.206
7.597,-0.226
7.598,-0.241
7.599,-0.244
7.600,-0.223
7.601,-0.169
7.602,-0.129
7.603,-0.096
7.604,-0.056
7.605,-0.026
7.606,-0.001
7.607,0.013
7.608,0.014
7.609,-0.006
7.610,-0.028
7.611,-0.056
7.612,-0.084
7.613,-0.104
7.614,-0.120
7.615,-0.134
7.616,-0.144
7.617,-0.136
7.618,-0.131
7.619,-0.116
7.620,-0.084
7.621,-0.055
7.622,-0.029
7.623,-0.005
7.624,0.019
7.625,0.034
7.626,0.037
7.627,0.033
7.628,0.009
7.629,-0.021
7.630,-0.062
7.631,-0.104
7.632,-0.136
7.633,-0.181
7.634,-0.216
7.635,-0.231
7.636,-0.249
7.637,-0.246
7.638,-0.231
7.639,-0.216
7.640,-0.166
7.641,-0.138
7.642,-0.115
7.643,-0.096
7.644,-0.089
7.645,-0.086
7.646,-0.096
7.647,-0.116
7.648,-0.144
7.649,-0.184
7.650,-0.216
7.651,-0.264
7.652,-0.294
7.653,-0.323
7.654,-0.334
7.655,-0.341
7.656,-0.334
7.657,-0.324
7.658,-0.299
7.659,-0.284
7.660,-0.221
7.661,-0.204
7.662,-0.185
7.663,-0.169
7.664,-0.160
7.665,-0.151
7.666,-0.164
7.667,-0.181
7.668,-0.205
7.669,-0.241
7.670,-0.266
7.671,-0.291
7.672,-0.324
7.673,-0.341
7.674,-0.354
7.675,-0.361
7.676,-0.351
7.677,-0.336
7.678,-0.310
7.679,-0.284
7.680,-0.223
7.681,-0.201
7.682,-0.180
7.683,-0.161
7.684,-0.149
7.685,-0.151
7.686,-0.164
7.687,-0.181
7.688,-0.201
7.689,-0.226
7.690,-0.246
7.691,-0.271
7.692,-0.287
7.693,-0.295
7.694,-0.305
7.695,-0.301
7.696,-0.290
7.697,-0.276
7.698,-0.263
7.699,-0.249
7.700,-0.206
7.701,-0.204
7.702,-0.189
7.703,-0.190
7.704,-0.204
7.705,-0.223
7.706,-0.249
7.707,-0.271
7.708,-0.291
7.709,-0.304
7.710,-0.321
7.711,-0.324
7.712,-0.320
7.713,-0.297
7.714,-0.289
7.715,-0.265
7.716,-0.230
7.717,-0.206
7.718,-0.189
7.719,-0.172
7.720,-0.171
7.721,-0.193
7.722,-0.224
7.723,-0.254
7.724,-0.284
7.725,-0.321
7.726,-0.356
7.727,-0.386
7.728,-0.406
7.729,-0.424
7.730,-0.431
7.731,-0.429
7.732,-0.414
7.733,-0.391
7.734,-0.367
7.735,-0.329
7.736,-0.291
7.737,-0.263
7.738,-0.241
7.739,-0.214
7.740,-0.164
7.741,-0.114
7.742,-0.086
7.743,-0.045
7.744,-0.001
7.745,0.065
7.746,0.139
7.747,0.226
7.748,0.329
7.749,0.439
7.750,0.574
7.751,0.711
7.752,0.868
7.753,1.029
7.754,1.206
7.755,1.396
7.756,1.589
7.757,1.770
7.758,1.915
7.759,2.039
7.760,2.080
7.761,2.031
7.762,1.914
7.763,1.784
7.764,1.629
7.765,1.479
7.766,1.330
7.767,1.186
7.768,1.051
7.769,0.909
7.770,0.767
7.771,0.624
7.772,0.494
7.773,0.356
7.774,0.229
7.775,0.111
7.776,-0.006
7.777,-0.106
7.778,-0.204
7.779,-0.289
7.780,-0.451
7.781,-0.506
7.782,-0.561
7.783,-0.601
7.784,-0.623
7.785,-0.627
7.786,-0.624
7.787,-0.606
7.788,-0.581
7.789,-0.551
7.790,-0.515
7.791,-0.481
7.792,-0.444
7.793,-0.409
7.794,-0.385
7.795,-0.369
7.796,-0.362
7.797,-0.356
7.798,-0.364
7.799,-0.371
7.800,-0.410
7.801,-0.431
7.802,-0.446
7.803,-0.459
7.804,-0.469
7.805,-0.469
7.806,-0.464
7.807,-0.446
7.808,-0.431
7.809,-0.410
7.810,-0.389
7.811,-0.369
7.812,-0.351
7.813,-0.334
7.814,-0.328
7.815,-0.324
7.816,-0.328
7.817,-0.331
7.818,-0.345
7.819,-0.361
7.820,-0.411
7.821,-0.446
7.822,-0.450
7.823,-0.446
7.824,-0.436
7.825,-0.424
7.826,-0.406
7.827,-0.371
7.828,-0.336
7.829,-0.301
7.830,-0.274
7.831,-0.260
7.832,-0.256
7.833,-0.256
7.834,-0.273
7.835,-0.292
7.836,-0.311
7.837,-0.341
7.838,-0.369
7.839,-0.384
7.840,-0.422
7.841,-0.420
7.842,-0.404
7.843,-0.384
7.844,-0.366
7.845,-0.346
7.846,-0.325
7.847,-0.295
7.848,-0.281
7.849,-0.263
7.850,-0.254
7.851,-0.254
7.852,-0.264
7.853,-0.276
7.854,-0.304
7.855,-0.325
7.856,-0.351
7.857,-0.371
7.858,-0.390
7.859,-0.407
7.860,-0.388
7.861,-0.371
7.862,-0.346
7.863,-0.321
7.864,-0.284
7.865,-0.253
7.866,-0.224
7.867,-0.196
7.868,-0.189
7.869,-0.188
7.870,-0.194
7.871,-0.211
7.872,-0.231
7.873,-0.266
7.874,-0.294
7.875,-0.334
7.876,-0.370
7.877,-0.404
7.878,-0.414
7.879,-0.411
7.880,-0.349
7.881,-0.309
7.882,-0.261
7.883,-0.219
7.884,-0.186
7.885,-0.163
7.886,-0.136
7.887,-0.126
7.888,-0.129
7.889,-0.136
7.890,-0.161
7.891,-0.186
7.892,-0.206
7.893,-0.230
7.894,-0.254
7.895,-0.269
7.896,-0.287
7.897,-0.287
7.898,-0.289
7.899,-0.286
7.900,-0.234
7.901,-0.214
7.902,-0.191
7.903,-0.160
7.904,-0.136
7.905,-0.120
7.906,-0.121
7.907,-0.124
7.908,-0.136
7.909,-0.161
7.910,-0.191
7.911,-0.228
7.912,-0.266
7.913,-0.294
7.914,-0.324
7.915,-0.330
7.916,-0.334
7.917,-0.324
7.918,-0.295
7.919,-0.270
7.920,-0.189
7.921,-0.163
7.922,-0.131
7.923,-0.111
7.924,-0.096
7.925,-0.091
7.926,-0.092
7.927,-0.106
7.928,-0.115
7.929,-0.135
7.930,-0.166
7.931,-0.201
7.932,-0.229
7.933,-0.256
7.934,-0.268
7.935,-0.264
7.936,-0.250
7.937,-0.226
7.938,-0.196
7.939,-0.164
7.940,-0.086
7.941,-0.061
7.942,-0.031
7.943,-0.014
7.944,-0.006
7.945,-0.006
7.946,-0.016
7.947,-0.029
7.948,-0.059
7.949,-0.087
7.950,-0.121
7.951,-0.150
7.952,-0.181
7.953,-0.205
7.954,-0.216
7.955,-0.215
7.956,-0.206
7.957,-0.186
7.958,-0.146
7.959,-0.106
7.960,-0.021
7.961,0.009
7.962,0.026
7.963,0.035
7.964,0.036
7.965,0.033
7.966,0.019
7.967,-0.014
7.968,-0.041
7.969,-0.070
7.970,-0.096
7.971,-0.114
7.972,-0.125
7.973,-0.126
7.974,-0.125
7.975,-0.110
7.976,-0.094
7.977,-0.069
7.978,-0.046
7.979,-0.020
7.980,0.046
7.981,0.059
7.982,0.075
7.983,0.079
7.984,0.074
7.985,0.059
7.986,0.036
7.987,0.014
7.988,-0.024
7.989,-0.049
7.990,-0.071
7.991,-0.090
7.992,-0.101
7.993,-0.106
7.994,-0.101
7.995,-0.084
7.996,-0.061
7.997,-0.041
7.998,-0.007
7.999,0.024
8.000,0.054
8.001,0.059
8.002,0.049
8.003,0.031
8.004,-0.007
8.005,-0.037
8.006,-0.069
8.007,-0.111
8.008,-0.147
8.009,-0.186
8.010,-0.211
8.011,-0.231
8.012,-0.246
8.013,-0.241
8.014,-0.229
8.015,-0.209
8.016,-0.182
8.017,-0.154
8.018,-0.126
8.019,-0.102
8.020,-0.094
8.021,-0.111
8.022,-0.135
8.023,-0.172
8.024,-0.209
8.025,-0.250
8.026,-0.289
8.027,-0.326
8.028,-0.354
8.029,-0.370
8.030,-0.376
8.031,-0.376
8.032,-0.365
8.033,-0.346
8.034,-0.311
8.035,-0.284
8.036,-0.249
8.037,-0.224
8.038,-0.203
8.039,-0.189
8.040,-0.191
8.041,-0.199
8.042,-0.229
8.043,-0.266
8.044,-0.295
8.045,-0.329
8.046,-0.345
8.047,-0.356
8.048,-0.364
8.049,-0.369
8.050,-0.355
8.051,-0.334
8.052,-0.306
8.053,-0.271
8.054,-0.246
8.055,-0.224
8.056,-0.205
8.057,-0.195
8.058,-0.204
8.059,-0.206
8.060,-0.246
8.061,-0.269
8.062,-0.292
8.063,-0.321
8.064,-0.344
8.065,-0.366
8.066,-0.381
8.067,-0.388
8.068,-0.403
8.069,-0.390
8.070,-0.379
8.071,-0.364
8.072,-0.343
8.073,-0.314
8.074,-0.290
8.075,-0.269
8.076,-0.246
8.077,-0.240
8.078,-0.241
8.079,-0.256
8.080,-0.311
8.081,-0.366
8.082,-0.386
8.083,-0.410
8.084,-0.426
8.085,-0.431
8.086,-0.425
8.087,-0.414
8.088,-0.391
8.089,-0.364
8.090,-0.331
8.091,-0.297
8.092,-0.265
8.093,-0.244
8.094,-0.216
8.095,-0.211
8.096,-0.216
8.097,-0.228
8.098,-0.249
8.099,-0.281
8.100,-0.354
8.101,-0.376
8.102,-0.391
8.103,-0.409
8.104,-0.411
8.105,-0.409
8.106,-0.401
8.107,-0.375
8.108,-0.350
8.109,-0.324
8.110,-0.286
8.111,-0.261
8.112,-0.229
8.113,-0.209
8.114,-0.204
8.115,-0.209
8.116,-0.226
8.117,-0.254
8.118,-0.284
8.119,-0.326
8.120,-0.389
8.121,-0.411
8.122,-0.424
8.123,-0.424
8.124,-0.421
8.125,-0.409
8.126,-0.389
8.127,-0.366
8.128,-0.341
8.129,-0.310
8.130,-0.286
8.131,-0.269
8.132,-0.253
8.133,-0.246
8.134,-0.246
8.135,-0.251
8.136,-0.264
8.137,-0.286
8.138,-0.311
8.139,-0.335
8.140,-0.370
8.141,-0.376
8.142,-0.381
8.143,-0.366
8.144,-0.346
8.145,-0.321
8.146,-0.289
8.147,-0.261
8.148,-0.233
8.149,-0.214
8.150,-0.204
8.151,-0.191
8.152,-0.189
8.153,-0.201
8.154,-0.216
8.155,-0.247
8.156,-0.282
8.157,-0.311
8.158,-0.349
8.159,-0.372
8.160,-0.407
8.161,-0.410
8.162,-0.406
8.163,-0.381
8.164,-0.351
8.165,-0.325
8.166,-0.289
8.167,-0.264
8.168,-0.245
8.169,-0.216
8.170,-0.196
8.171,-0.196
8.172,-0.194
8.173,-0.196
8.174,-0.211
8.175,-0.228
8.176,-0.255
8.177,-0.289
8.178,-0.324
8.179,-0.346
8.180,-0.374
8.181,-0.354
8.182,-0.341
8.183,-0.320
8.184,-0.287
8.185,-0.264
8.186,-0.234
8.187,-0.221
8.188,-0.206
8.189,-0.204
8.190,-0.210
8.191,-0.223
8.192,-0.244
8.193,-0.261
8.194,-0.284
8.195,-0.305
8.196,-0.325
8.197,-0.344
8.198,-0.351
8.199,-0.356
8.200,-0.341
8.201,-0.294
8.202,-0.264
8.203,-0.244
8.204,-0.212
8.205,-0.196
8.206,-0.186
8.207,-0.190
8.208,-0.205
8.209,-0.225
8.210,-0.246
8.211,-0.271
8.212,-0.296
8.213,-0.329
8.214,-0.351
8.215,-0.364
8.216,-0.376
8.217,-0.376
8.218,-0.372
8.219,-0.354
8.220,-0.309
8.221,-0.286
8.222,-0.256
8.223,-0.224
8.224,-0.195
8.225,-0.181
8.226,-0.174
8.227,-0.169
8.228,-0.184
8.229,-0.209
8.230,-0.244
8.231,-0.271
8.232,-0.301
8.233,-0.325
8.234,-0.341
8.235,-0.354
8.236,-0.356
8.237,-0.356
8.238,-0.346
8.239,-0.331
8.240,-0.275
8.241,-0.256
8.242,-0.231
8.243,-0.211
8.244,-0.194
8.245,-0.184
8.246,-0.188
8.247,-0.196
8.248,-0.211
8.249,-0.233
8.250,-0.254
8.251,-0.271
8.252,-0.292
8.253,-0.304
8.254,-0.311
8.255,-0.304
8.256,-0.295
8.257,-0.284
8.258,-0.264
8.259,-0.241
8.260,-0.181
8.261,-0.161
8.262,-0.134
8.263,-0.126
8.264,-0.113
8.265,-0.116
8.266,-0.131
8.267,-0.154
8.268,-0.184
8.269,-0.214
8.270,-0.250
8.271,-0.276
8.272,-0.302
8.273,-0.326
8.274,-0.338
8.275,-0.346
8.276,-0.334
8.277,-0.311
8.278,-0.289
8.279,-0.261
8.280,-0.190
8.281,-0.172
8.282,-0.146
8.283,-0.136
8.284,-0.144
8.285,-0.155
8.286,-0.174
8.287,-0.204
8.288,-0.231
8.289,-0.256
8.290,-0.281
8.291,-0.296
8.292,-0.309
8.293,-0.312
8.294,-0.314
8.295,-0.304
8.296,-0.291
8.297,-0.261
8.298,-0.226
8.299,-0.196
8.300,-0.163
8.301,-0.149
8.302,-0.149
8.303,-0.151
8.304,-0.181
8.305,-0.204
8.306,-0.226
8.307,-0.264
8.308,-0.289
8.309,-0.321
8.310,-0.334
8.311,-0.334
8.312,-0.331
8.313,-0.310
8.314,-0.282
8.315,-0.254
8.316,-0.214
8.317,-0.186
8.318,-0.160
8.319,-0.136
8.320,-0.121
8.321,-0.124
8.322,-0.134
8.323,-0.160
8.324,-0.186
8.325,-0.221
8.326,-0.261
8.327,-0.294
8.328,-0.329
8.329,-0.347
8.330,-0.361
8.331,-0.354
8.332,-0.340
8.333,-0.314
8.334,-0.285
8.335,-0.254
8.336,-0.216
8.337,-0.182
8.338,-0.154
8.339,-0.131
8.340,-0.136
8.341,-0.184
8.342,-0.214
8.343,-0.249
8.344,-0.270
8.345,-0.296
8.346,-0.323
8.347,-0.333
8.348,-0.334
8.349,-0.321
8.350,-0.301
8.351,-0.271
8.352,-0.245
8.353,-0.206
8.354,-0.176
8.355,-0.154
8.356,-0.134
8.357,-0.125
8.358,-0.122
8.359,-0.126
8.360,-0.172
8.361,-0.194
8.362,-0.214
8.363,-0.241
8.364,-0.264
8.365,-0.281
8.366,-0.292
8.367,-0.294
8.368,-0.289
8.369,-0.234
8.370,-0.215
8.371,-0.186
8.372,-0.166
8.373,-0.142
8.374,-0.122
8.375,-0.113
8.376,-0.109
8.377,-0.111
8.378,-0.121
8.379,-0.134
8.380,-0.182
8.381,-0.204
8.382,-0.217
8.383,-0.230
8.384,-0.244
8.385,-0.244
8.386,-0.250
8.387,-0.246
8.388,-0.234
8.389,-0.225
8.390,-0.206
8.391,-0.185
8.392,-0.169
8.393,-0.150
8.394,-0.141
8.395,-0.130
8.396,-0.136
8.397,-0.146
8.398,-0.166
8.399,-0.182
8.400,-0.224
8.401,-0.241
8.402,-0.255
8.403,-0.264
8.404,-0.256
8.405,-0.247
8.406,-0.225
8.407,-0.196
8.408,-0.170
8.409,-0.134
8.410,-0.106
8.411,-0.085
8.412,-0.064
8.413,-0.054
8.414,-0.055
8.415,-0.064
8.416,-0.084
8.417,-0.109
8.418,-0.134
8.419,-0.170
8.420,-0.246
8.421,-0.270
8.422,-0.284
8.423,-0.294
8.424,-0.292
8.425,-0.290
8.426,-0.281
8.427,-0.263
8.428,-0.246
8.429,-0.228
8.430,-0.209
8.431,-0.196
8.432,-0.184
8.433,-0.186
8.434,-0.194
8.435,-0.211
8.436,-0.229
8.437,-0.253
8.438,-0.284
8.439,-0.309
8.440,-0.351
8.441,-0.366
8.442,-0.366
8.443,-0.356
8.444,-0.341
8.445,-0.311
8.446,-0.281
8.447,-0.254
8.448,-0.229
8.449,-0.206
8.450,-0.189
8.451,-0.185
8.452,-0.181
8.453,-0.181
8.454,-0.196
8.455,-0.224
8.456,-0.249
8.457,-0.281
8.458,-0.306
8.459,-0.335
8.460,-0.366
8.461,-0.370
8.462,-0.366
8.463,-0.356
8.464,-0.344
8.465,-0.310
8.466,-0.285
8.467,-0.255
8.468,-0.226
8.469,-0.203
8.470,-0.194
8.471,-0.188
8.472,-0.191
8.473,-0.214
8.474,-0.233
8.475,-0.269
8.476,-0.296
8.477,-0.336
8.478,-0.355
8.479,-0.381
8.480,-0.409
8.481,-0.411
8.482,-0.406
8.483,-0.384
8.484,-0.355
8.485,-0.324
8.486,-0.286
8.487,-0.261
8.488,-0.241
8.489,-0.221
8.490,-0.206
8.491,-0.196
8.492,-0.196
8.493,-0.211
8.494,-0.229
8.495,-0.246
8.496,-0.266
8.497,-0.286
8.498,-0.296
8.499,-0.309
8.500,-0.311
8.501,-0.304
8.502,-0.290
8.503,-0.284
8.504,-0.264
8.505,-0.244
8.506,-0.211
8.507,-0.190
8.508,-0.181
8.509,-0.176
8.510,-0.188
8.511,-0.207
8.512,-0.231
8.513,-0.269
8.514,-0.304
8.515,-0.340
8.516,-0.369
8.517,-0.409
8.518,-0.424
8.519,-0.429
8.520,-0.431
8.521,-0.400
8.522,-0.370
8.523,-0.344
8.524,-0.324
8.525,-0.302
8.526,-0.284
8.527,-0.261
8.528,-0.246
8.529,-0.226
8.530,-0.209
8.531,-0.191
8.532,-0.171
8.533,-0.145
8.534,-0.109
8.535,-0.058
8.536,0.014
8.537,0.098
8.538,0.195
8.539,0.316
8.540,0.609
8.541,0.786
8.542,0.891
8.543,1.035
8.544,1.195
8.545,1.367
8.546,1.548
8.547,1.706
8.548,1.851
8.549,1.956
8.550,2.009
8.551,2.005
8.552,1.956
8.553,1.864
8.554,1.735
8.555,1.591
8.556,1.448
8.557,1.291
8.558,1.146
8.559,1.009
8.560,0.704
8.561,0.583
8.562,0.427
8.563,0.295
8.564,0.169
8.565,0.044
8.566,-0.069
8.567,-0.180
8.568,-0.280
8.569,-0.356
8.570,-0.434
8.571,-0.495
8.572,-0.547
8.573,-0.594
8.574,-0.627
8.575,-0.649
8.576,-0.651
8.577,-0.649
8.578,-0.626
8.579,-0.609
8.580,-0.531
8.581,-0.501
8.582,-0.453
8.583,-0.416
8.584,-0.391
8.585,-0.378
8.586,-0.378
8.587,-0.386
8.588,-0.401
8.589,-0.416
8.590,-0.426
8.591,-0.432
8.592,-0.441
8.593,-0.441
8.594,-0.431
8.595,-0.424
8.596,-0.414
8.597,-0.389
8.598,-0.367
8.599,-0.349
8.600,-0.294
8.601,-0.281
8.602,-0.269
8.603,-0.266
8.604,-0.284
8.605,-0.301
8.606,-0.334
8.607,-0.365
8.608,-0.401
8.609,-0.429
8.610,-0.455
8.611,-0.471
8.612,-0.485
8.613,-0.484
8.614,-0.470
8.615,-0.454
8.616,-0.429
8.617,-0.403
8.618,-0.369
8.619,-0.343
8.620,-0.296
8.621,-0.289
8.622,-0.286
8.623,-0.291
8.624,-0.302
8.625,-0.323
8.626,-0.344
8.627,-0.357
8.628,-0.370
8.629,-0.376
8.630,-0.384
8.631,-0.383
8.632,-0.370
8.633,-0.362
8.634,-0.344
8.635,-0.321
8.636,-0.289
8.637,-0.269
8.638,-0.246
8.639,-0.219
8.640,-0.194
8.641,-0.193
8.642,-0.204
8.643,-0.219
8.644,-0.250
8.645,-0.271
8.646,-0.304
8.647,-0.331
8.648,-0.351
8.649,-0.369
8.650,-0.376
8.651,-0.376
8.652,-0.366
8.653,-0.346
8.654,-0.294
8.655,-0.276
8.656,-0.261
8.657,-0.244
8.658,-0.216
8.659,-0.196
8.660,-0.181
8.661,-0.184
8.662,-0.194
8.663,-0.210
8.664,-0.233
8.665,-0.264
8.666,-0.290
8.667,-0.309
8.668,-0.330
8.669,-0.346
8.670,-0.346
8.671,-0.334
8.672,-0.309
8.673,-0.276
8.674,-0.251
8.675,-0.216
8.676,-0.184
8.677,-0.151
8.678,-0.133
8.679,-0.126
8.680,-0.166
8.681,-0.229
8.682,-0.254
8.683,-0.281
8.684,-0.304
8.685,-0.314
8.686,-0.324
8.687,-0.309
8.688,-0.296
8.689,-0.275
8.690,-0.250
8.691,-0.217
8.692,-0.186
8.693,-0.154
8.694,-0.131
8.695,-0.111
8.696,-0.096
8.697,-0.089
8.698,-0.095
8.699,-0.114
8.700,-0.176
8.701,-0.244
8.702,-0.269
8.703,-0.289
8.704,-0.291
8.705,-0.287
8.706,-0.271
8.707,-0.253
8.708,-0.223
8.709,-0.196
8.710,-0.174
8.711,-0.149
8.712,-0.129
8.713,-0.107
8.714,-0.084
8.715,-0.066
8.716,-0.058
8.717,-0.064
8.718,-0.070
8.719,-0.089
8.720,-0.136
8.721,-0.166
8.722,-0.185
8.723,-0.201
8.724,-0.211
8.725,-0.207
8.726,-0.195
8.727,-0.166
8.728,-0.130
8.729,-0.091
8.730,-0.054
8.731,-0.011
8.732,0.025
8.733,0.046
8.734,0.054
8.735,0.031
8.736,0.036
8.737,0.019
8.738,-0.016
8.739,-0.048
8.740,-0.116
8.741,-0.139
8.742,-0.155
8.743,-0.165
8.744,-0.149
8.745,-0.128
8.746,-0.096
8.747,-0.049
8.748,-0.014
8.749,0.035
8.750,0.066
8.751,0.091
8.752,0.104
8.753,0.104
8.754,0.091
8.755,0.069
8.756,0.039
8.757,0.019
8.758,-0.016
8.759,-0.052
8.760,-0.091
8.761,-0.096
8.762,-0.089
8.763,-0.071
8.764,-0.051
8.765,-0.021
8.766,0.024
8.767,0.056
8.768,0.089
8.769,0.114
8.770,0.129
8.771,0.138
8.772,0.139
8.773,0.131
8.774,0.114
8.775,0.090
8.776,0.059
8.777,0.029
8.778,-0.014
8.779,-0.044
8.780,-0.092
8.781,-0.101
8.782,-0.100
8.783,-0.090
8.784,-0.068
8.785,-0.031
8.786,-0.014
8.787,0.019
8.788,0.039
8.789,0.056
8.790,0.069
8.791,0.069
8.792,0.054
8.793,0.030
8.794,-0.001
8.795,-0.031
8.796,-0.062
8.797,-0.094
8.798,-0.121
8.799,-0.141
8.800,-0.150
8.801,-0.145
8.802,-0.134
8.803,-0.124
8.804,-0.109
8.805,-0.095
8.806,-0.081
8.807,-0.069
8.808,-0.066
8.809,-0.066
8.810,-0.074
8.811,-0.096
8.812,-0.126
8.813,-0.166
8.814,-0.209
8.815,-0.250
8.816,-0.286
8.817,-0.309
8.818,-0.323
8.819,-0.324
8.820,-0.276
8.821,-0.225
8.822,-0.177
8.823,-0.169
8.824,-0.166
8.825,-0.164
8.826,-0.170
8.827,-0.184
8.828,-0.206
8.829,-0.228
8.830,-0.255
8.831,-0.282
8.832,-0.305
8.833,-0.330
8.834,-0.341
8.835,-0.351
8.836,-0.352
8.837,-0.351
8.838,-0.344
8.839,-0.331
8.840,-0.271
8.841,-0.247
8.842,-0.223
8.843,-0.204
8.844,-0.191
8.845,-0.185
8.846,-0.191
8.847,-0.196
8.848,-0.226
8.849,-0.260
8.850,-0.289
8.851,-0.323
8.852,-0.349
8.853,-0.369
8.854,-0.381
8.855,-0.386
8.856,-0.386
8.857,-0.374
8.858,-0.352
8.859,-0.333
8.860,-0.281
8.861,-0.254
8.862,-0.242
8.863,-0.229
8.864,-0.228
8.865,-0.246
8.866,-0.254
8.867,-0.271
8.868,-0.289
8.869,-0.307
8.870,-0.335
8.871,-0.361
8.872,-0.374
8.873,-0.379
8.874,-0.383
8.875,-0.374
8.876,-0.366
8.877,-0.346
8.878,-0.333
8.879,-0.306
8.880,-0.271
8.881,-0.256
8.882,-0.247
8.883,-0.249
8.884,-0.250
8.885,-0.261
8.886,-0.274
8.887,-0.296
8.888,-0.324
8.889,-0.336
8.890,-0.361
8.891,-0.369
8.892,-0.371
8.893,-0.374
8.894,-0.374
8.895,-0.364
8.896,-0.344
8.897,-0.324
8.898,-0.289
8.899,-0.261
8.900,-0.204
8.901,-0.193
8.902,-0.186
8.903,-0.189
8.904,-0.203
8.905,-0.215
8.906,-0.246
8.907,-0.276
8.908,-0.307
8.909,-0.334
8.910,-0.356
8.911,-0.370
8.912,-0.372
8.913,-0.372
8.914,-0.364
8.915,-0.341
8.916,-0.306
8.917,-0.275
8.918,-0.250
8.919,-0.221
8.920,-0.191
8.921,-0.188
8.922,-0.196
8.923,-0.210
8.924,-0.226
8.925,-0.251
8.926,-0.282
8.927,-0.309
8.928,-0.331
8.929,-0.343
8.930,-0.349
8.931,-0.346
8.932,-0.346
8.933,-0.324
8.934,-0.295
8.935,-0.273
8.936,-0.250
8.937,-0.226
8.938,-0.210
8.939,-0.191
8.940,-0.169
8.941,-0.171
8.942,-0.184
8.943,-0.193
8.944,-0.206
8.945,-0.234
8.946,-0.266
8.947,-0.290
8.948,-0.312
8.949,-0.324
8.950,-0.329
8.951,-0.311
8.952,-0.291
8.953,-0.268
8.954,-0.233
8.955,-0.195
8.956,-0.166
8.957,-0.141
8.958,-0.128
8.959,-0.126
8.960,-0.151
8.961,-0.172
8.962,-0.199
8.963,-0.241
8.964,-0.270
8.965,-0.304
8.966,-0.344
8.967,-0.369
8.968,-0.383
8.969,-0.381
8.970,-0.370
8.971,-0.347
8.972,-0.310
8.973,-0.266
8.974,-0.214
8.975,-0.169
8.976,-0.129
8.977,-0.096
8.978,-0.081
8.979,-0.080
8.980,-0.116
8.981,-0.145
8.982,-0.184
8.983,-0.260
8.984,-0.287
8.985,-0.312
8.986,-0.336
8.987,-0.340
8.988,-0.331
8.989,-0.324
8.990,-0.304
8.991,-0.274
8.992,-0.246
8.993,-0.211
8.994,-0.181
8.995,-0.152
8.996,-0.134
8.997,-0.124
8.998,-0.124
8.999,-0.131
9.000,-0.185
9.001,-0.254
9.002,-0.281
9.003,-0.312
9.004,-0.331
9.005,-0.336
9.006,-0.331
9.007,-0.310
9.008,-0.285
9.009,-0.261
9.010,-0.226
9.011,-0.195
9.012,-0.172
9.013,-0.152
9.014,-0.146
9.015,-0.136
9.016,-0.142
9.017,-0.150
9.018,-0.169
9.019,-0.191
9.020,-0.261
9.021,-0.284
9.022,-0.301
9.023,-0.311
9.024,-0.321
9.025,-0.321
9.026,-0.307
9.027,-0.285
9.028,-0.260
9.029,-0.226
9.030,-0.196
9.031,-0.172
9.032,-0.151
9.033,-0.145
9.034,-0.149
9.035,-0.164
9.036,-0.184
9.037,-0.204
9.038,-0.226
9.039,-0.256
9.040,-0.314
9.041,-0.336
9.042,-0.349
9.043,-0.344
9.044,-0.331
9.045,-0.306
9.046,-0.275
9.047,-0.246
9.048,-0.201
9.049,-0.169
9.050,-0.141
9.051,-0.116
9.052,-0.104
9.053,-0.096
9.054,-0.100
9.055,-0.115
9.056,-0.142
9.057,-0.181
9.058,-0.221
9.059,-0.263
9.060,-0.301
9.061,-0.304
9.062,-0.296
9.063,-0.289
9.064,-0.265
9.065,-0.241
9.066,-0.211
9.067,-0.185
9.068,-0.152
9.069,-0.129
9.070,-0.110
9.071,-0.101
9.072,-0.096
9.073,-0.102
9.074,-0.114
9.075,-0.136
9.076,-0.168
9.077,-0.196
9.078,-0.229
9.079,-0.255
9.080,-0.294
9.081,-0.295
9.082,-0.290
9.083,-0.273
9.084,-0.254
9.085,-0.230
9.086,-0.204
9.087,-0.176
9.088,-0.161
9.089,-0.141
9.090,-0.141
9.091,-0.145
9.092,-0.164
9.093,-0.171
9.094,-0.189
9.095,-0.206
9.096,-0.224
9.097,-0.242
9.098,-0.249
9.099,-0.256
9.100,-0.251
9.101,-0.241
9.102,-0.231
9.103,-0.194
9.104,-0.172
9.105,-0.134
9.106,-0.109
9.107,-0.085
9.108,-0.064
9.109,-0.061
9.110,-0.068
9.111,-0.090
9.112,-0.110
9.113,-0.133
9.114,-0.166
9.115,-0.201
9.116,-0.229
9.117,-0.264
9.118,-0.284
9.119,-0.289
9.120,-0.274
9.121,-0.260
9.122,-0.231
9.123,-0.207
9.124,-0.179
9.125,-0.149
9.126,-0.124
9.127,-0.107
9.128,-0.094
9.129,-0.089
9.130,-0.094
9.131,-0.111
9.132,-0.126
9.133,-0.146
9.134,-0.171
9.135,-0.194
9.136,-0.206
9.137,-0.214
9.138,-0.221
9.139,-0.221
9.140,-0.191
9.141,-0.172
9.142,-0.149
9.143,-0.129
9.144,-0.106
9.145,-0.091
9.146,-0.083
9.147,-0.071
9.148,-0.071
9.149,-0.086
9.150,-0.104
9.151,-0.129
9.152,-0.164
9.153,-0.196
9.154,-0.225
9.155,-0.253
9.156,-0.265
9.157,-0.269
9.158,-0.269
9.159,-0.250
9.160,-0.185
9.161,-0.160
9.162,-0.104
9.163,-0.075
9.164,-0.064
9.165,-0.056
9.166,-0.062
9.167,-0.069
9.168,-0.089
9.169,-0.109
9.170,-0.133
9.171,-0.196
9.172,-0.217
9.173,-0.249
9.174,-0.261
9.175,-0.255
9.176,-0.247
9.177,-0.231
9.178,-0.204
9.179,-0.174
9.180,-0.104
9.181,-0.052
9.182,-0.046
9.183,-0.051
9.184,-0.066
9.185,-0.092
9.186,-0.111
9.187,-0.144
9.188,-0.181
9.189,-0.216
9.190,-0.251
9.191,-0.270
9.192,-0.284
9.193,-0.291
9.194,-0.281
9.195,-0.261
9.196,-0.231
9.197,-0.204
9.198,-0.181
9.199,-0.151
9.200,-0.106
9.201,-0.101
9.202,-0.101
9.203,-0.106
9.204,-0.114
9.205,-0.130
9.206,-0.154
9.207,-0.184
9.208,-0.201
9.209,-0.211
9.210,-0.216
9.211,-0.221
9.212,-0.212
9.213,-0.204
9.214,-0.191
9.215,-0.181
9.216,-0.151
9.217,-0.133
9.218,-0.105
9.219,-0.081
9.220,-0.043
9.221,-0.049
9.222,-0.048
9.223,-0.066
9.224,-0.084
9.225,-0.104
9.226,-0.122
9.227,-0.136
9.228,-0.151
9.229,-0.169
9.230,-0.172
9.231,-0.174
9.232,-0.171
9.233,-0.164
9.234,-0.149
9.235,-0.131
9.236,-0.106
9.237,-0.068
9.238,-0.031
9.239,-0.004
9.240,0.026
9.241,0.015
9.242,-0.014
9.243,-0.045
9.244,-0.084
9.245,-0.116
9.246,-0.149
9.247,-0.175
9.248,-0.194
9.249,-0.201
9.250,-0.196
9.251,-0.181
9.252,-0.161
9.253,-0.124
9.254,-0.086
9.255,-0.046
9.256,-0.001
9.257,0.039
9.258,0.060
9.259,0.076
9.260,0.071
9.261,0.044
9.262,0.015
9.263,-0.014
9.264,-0.056
9.265,-0.113
9.266,-0.141
9.267,-0.151
9.268,-0.164
9.269,-0.151
9.270,-0.136
9.271,-0.116
9.272,-0.092
9.273,-0.066
9.274,-0.045
