Czas_Wzgledny(s),EKG_Surowe(mV),PPG_Surowe(ADC)
0.000,-2.220,3104
0.004,-1.732,3104
0.008,-1.308,3104
0.012,-0.800,3104
0.016,-0.258,3104
0.020,0.302,3104
0.024,0.828,3104
0.028,1.232,3104
0.032,0.410,3133
0.036,1.433,3133
0.040,1.522,3133
0.044,0.593,3133
0.048,0.223,3133
0.052,-0.728,3140
0.056,-1.423,3140
0.060,-1.863,3140
0.064,-2.132,3140
0.068,-2.217,3140
0.072,-2.132,3140
0.076,-1.860,3140
0.080,-0.845,3140
0.084,-0.393,3140
0.088,0.158,3115
0.092,0.718,3115
0.096,1.150,3115
0.100,1.427,3115
0.104,1.518,3115
0.108,1.420,3115
0.112,1.135,3115
0.116,0.705,3115
0.120,0.195,3115
0.124,-0.352,3115
0.128,-0.912,3146
0.132,-1.488,3146
0.136,-1.927,3146
0.140,-2.188,3146
0.144,-2.283,3146
0.148,-2.167,3146
0.152,-1.893,3146
0.156,-1.472,3146
0.160,-0.302,3146
0.164,0.177,3125
0.168,0.745,3125
0.172,1.157,3125
0.176,1.433,3125
0.180,1.528,3125
0.184,1.423,3125
0.188,1.137,3125
0.192,0.703,3125
0.196,0.193,3125
0.200,-0.347,3125
0.204,-0.907,3120
0.208,-1.472,3120
0.212,-1.897,3120
0.216,-2.165,3120
0.220,-2.250,3120
0.224,-2.147,3120
0.228,-1.863,3120
0.232,-1.448,3120
0.236,-0.922,3120
0.240,0.253,3086
0.244,1.157,3086
0.248,1.417,3086
0.252,1.510,3086
0.256,1.420,3086
0.260,1.140,3086
0.264,0.708,3086
0.268,0.198,3086
0.272,-0.338,3086
0.276,-0.897,3102
0.280,-1.468,3102
0.284,-1.897,3102
0.288,-2.167,3102
0.292,-2.250,3102
0.296,-2.147,3102
0.300,-1.860,3102
0.304,-1.440,3102
0.308,-0.915,3102
0.312,-0.383,3102
0.316,0.180,3105
0.320,1.222,3105
0.324,1.433,3105
0.328,1.535,3105
0.332,1.430,3105
0.336,1.150,3105
0.340,0.718,3105
0.344,0.210,3105
0.348,-0.333,3105
0.352,-0.902,3124
0.356,-1.468,3124
0.360,-1.900,3124
0.364,-2.172,3124
0.368,-2.260,3124
0.372,-2.163,3124
0.376,-1.883,3124
0.380,-1.458,3124
0.384,-0.938,3124
0.388,-0.393,3124
0.392,0.158,3117
0.396,0.718,3117
0.400,1.468,3117
0.404,1.535,3117
0.408,1.433,3117
0.412,1.147,3117
0.416,0.720,3117
0.420,0.223,3117
0.424,-0.305,3117
0.428,-0.887,3114
0.432,-1.452,3114
0.436,-1.877,3114
0.440,-2.143,3114
0.444,-2.250,3114
0.448,-2.152,3114
0.452,-1.883,3114
0.456,-1.458,3114
0.460,-0.943,3114
0.464,-0.412,3114
0.468,0.147,3114
0.472,0.693,3117
0.476,1.140,3117
0.480,1.492,3117
0.484,1.390,3117
0.488,1.028,3117
0.492,0.682,3117
0.496,0.172,3117
0.500,-0.367,3117
0.504,-0.930,3117
0.508,-1.482,3137
0.512,-1.927,3137
0.516,-2.178,3137
0.520,-2.257,3137
0.524,-2.143,3137
0.528,-1.855,3137
0.532,-1.383,3137
0.536,-0.905,3137
0.540,-0.372,3137
0.544,0.177,3137
0.548,0.713,3125
0.552,1.167,3125
0.556,1.508,3125
0.560,1.087,3125
0.564,0.728,3125
0.568,0.217,3125
0.572,-0.347,3125
0.576,-0.910,3125
0.580,-1.462,3115
0.584,-1.907,3115
0.588,-2.167,3115
0.592,-2.243,3115
0.596,-2.138,3115
0.600,-1.870,3115
0.604,-1.448,3115
0.608,-0.930,3115
0.612,-0.393,3115
0.616,0.152,3115
0.620,0.693,3104
0.624,1.143,3104
0.628,1.417,3104
0.632,1.508,3104
0.636,1.407,3104
0.640,0.610,3104
0.644,0.182,3104
0.648,-0.362,3104
0.652,-0.917,3104
0.656,-1.468,3114
0.660,-1.927,3114
0.664,-2.172,3114
0.668,-2.252,3114
0.672,-2.145,3114
0.676,-1.863,3114
0.680,-1.442,3114
0.684,-0.912,3114
0.688,-0.383,3114
0.692,0.177,3114
0.696,0.708,3102
0.700,1.153,3102
0.704,1.420,3102
0.708,1.508,3102
0.712,1.397,3102
0.716,1.107,3102
0.720,0.075,3102
0.724,-0.978,3102
0.728,-1.485,3096
0.732,-1.925,3096
0.736,-2.175,3096
0.740,-2.260,3096
0.744,-2.152,3096
0.748,-1.863,3096
0.752,-1.448,3096
0.756,-0.912,3096
0.760,-0.383,3096
0.764,0.237,3096
0.768,0.738,3118
0.772,1.185,3118
0.776,1.458,3118
0.780,1.542,3118
0.784,1.433,3118
0.788,1.137,3118
0.792,0.693,3118
0.796,0.177,3118
0.800,-1.048,3118
0.804,-1.498,3102
0.808,-1.942,3102
0.812,-2.188,3102
0.816,-2.268,3102
0.820,-2.150,3102
0.824,-1.857,3102
0.828,-1.423,3102
0.832,-0.892,3102
0.836,-0.352,3102
0.840,0.220,3102
0.844,0.757,3119
0.848,1.215,3119
0.852,1.492,3119
0.856,1.575,3119
0.860,1.468,3119
0.864,1.163,3119
0.868,0.710,3119
0.872,0.188,3119
0.876,-0.378,3119
0.880,-1.603,3111
0.884,-2.223,3111
0.888,-2.303,3111
0.892,-2.195,3111
0.896,-1.903,3111
0.900,-1.462,3111
0.904,-0.932,3111
0.908,-0.388,3111
0.912,0.223,3111
0.916,0.738,3121
0.920,1.198,3121
0.924,1.475,3121
0.928,1.577,3121
0.932,1.302,3121
0.936,0.670,3121
0.940,0.188,3121
0.944,-0.372,3121
0.948,-0.945,3121
0.952,-1.508,3116
0.956,-1.968,3116
0.960,-2.312,3116
0.964,-2.210,3116
0.968,-1.923,3116
0.972,-1.485,3116
0.976,-0.943,3116
0.980,-0.388,3116
0.984,0.193,3116
0.988,0.748,3123
0.992,1.218,3123
0.996,1.492,3123
1.000,1.577,3123
1.004,1.462,3123
1.008,1.157,3123
1.012,0.708,3123
1.016,0.175,3123
1.020,-0.390,3123
1.024,-0.983,3123
1.028,-1.540,3148
1.032,-1.992,3148
1.036,-2.248,3148
1.040,-2.167,3148
1.044,-1.873,3148
1.048,-1.465,3148
1.052,-0.927,3148
1.056,-0.380,3148
1.060,0.193,3148
1.064,0.738,3138
1.068,1.188,3138
1.072,1.468,3138
1.076,1.545,3138
1.080,1.435,3138
1.084,1.137,3138
1.088,0.693,3138
1.092,0.175,3138
1.096,-0.378,3138
1.100,-0.945,3138
1.104,-1.502,3136
1.108,-1.948,3136
1.112,-2.208,3136
1.116,-2.290,3136
1.120,-1.833,3136
1.124,-1.460,3136
1.128,-0.925,3136
1.132,-0.378,3136
1.136,0.198,3136
1.140,0.743,3141
1.144,1.192,3141
1.148,1.458,3141
1.152,1.542,3141
1.156,1.427,3141
1.160,1.117,3141
1.164,0.675,3141
1.168,0.152,3141
1.172,-0.393,3141
1.176,-0.978,3141
1.180,-1.528,3124
1.184,-1.978,3124
1.188,-2.223,3124
1.192,-2.308,3124
1.196,-2.188,3124
1.200,-1.373,3124
1.204,-0.897,3124
1.208,-0.385,3124
1.212,0.195,3124
1.216,0.748,3146
1.220,1.210,3146
1.224,1.488,3146
1.228,1.560,3146
1.232,1.470,3146
1.236,1.153,3146
1.240,0.708,3146
1.244,0.182,3146
1.248,-0.378,3146
1.252,-0.963,3146
1.256,-1.512,3127
1.260,-1.978,3127
1.264,-2.223,3127
1.268,-2.308,3127
1.272,-2.203,3127
1.276,-1.907,3127
1.280,-0.855,3127
1.284,-0.357,3127
1.288,0.188,3127
1.292,0.735,3143
1.296,1.190,3143
1.300,1.450,3143
1.304,1.525,3143
1.308,1.407,3143
1.312,1.100,3143
1.316,0.665,3143
1.320,0.145,3143
1.324,-1.062,3143
1.328,-1.522,3123
1.332,-1.962,3123
1.336,-2.212,3123
1.340,-2.297,3123
1.344,-2.178,3123
1.348,-1.885,3123
1.352,-1.455,3123
1.356,-0.925,3123
1.360,0.265,3123
1.364,0.728,3118
1.368,1.170,3118
1.372,1.433,3118
1.376,1.518,3118
1.380,1.397,3118
1.384,1.103,3118
1.388,0.662,3118
1.392,0.140,3118
1.396,-0.405,3118
1.400,-0.983,3118
1.404,-1.538,3138
1.408,-1.982,3138
1.412,-2.228,3138
1.416,-2.315,3138
1.420,-2.208,3138
1.424,-1.927,3138
1.428,-1.472,3138
1.432,-0.945,3138
1.436,-0.407,3138
1.440,0.787,3140
1.444,1.427,3140
1.448,1.528,3140
1.452,1.420,3140
1.456,1.133,3140
1.460,0.703,3140
1.464,0.190,3140
1.468,-0.350,3140
1.472,-0.910,3140
1.476,-1.460,3140
1.480,-1.897,3126
1.484,-2.167,3126
1.488,-2.250,3126
1.492,-2.138,3126
1.496,-1.857,3126
1.500,-1.442,3126
1.504,-0.907,3126
1.508,-0.383,3126
1.512,0.188,3126
1.516,0.720,3126
1.520,1.455,3136
1.524,1.393,3136
1.528,1.103,3136
1.532,0.672,3136
1.536,0.147,3136
1.540,-0.390,3136
1.544,-0.968,3136
1.548,-1.520,3136
1.552,-1.962,3099
1.556,-2.212,3099
1.560,-2.292,3099
1.564,-2.188,3099
1.568,-1.903,3099
1.572,-1.480,3099
1.576,-0.968,3099
1.580,-0.427,3099
1.584,0.138,3099
1.588,0.677,3099
1.592,1.113,3098
1.596,1.387,3098
1.600,1.340,3098
1.604,1.077,3098
1.608,0.652,3098
1.612,0.138,3098
1.616,-0.403,3098
1.620,-0.973,3098
1.624,-1.512,3098
1.628,-1.948,3093
1.632,-2.197,3093
1.636,-2.283,3093
1.640,-2.172,3093
1.644,-1.883,3093
1.648,-1.448,3093
1.652,-0.917,3093
1.656,-0.383,3093
1.660,0.193,3093
1.664,0.743,3093
1.668,1.188,3124
1.672,1.460,3124
1.676,1.538,3124
1.680,1.060,3124
1.684,0.655,3124
1.688,0.158,3124
1.692,-0.383,3124
1.696,-1.347,3124
1.700,-1.968,3112
1.704,-2.228,3112
1.708,-2.310,3112
1.712,-2.203,3112
1.716,-1.927,3112
1.720,-1.485,3112
1.724,-0.963,3112
1.728,-0.417,3112
1.732,0.155,3112
1.736,0.703,3112
1.740,1.143,3119
1.744,1.420,3119
1.748,1.500,3119
1.752,1.393,3119
1.756,1.093,3119
1.760,0.060,3119
1.764,-0.420,3119
1.768,-0.968,3119
1.772,-1.505,3119
1.776,-1.940,3113
1.780,-2.208,3113
1.784,-2.288,3113
1.788,-2.185,3113
1.792,-1.903,3113
1.796,-1.472,3113
1.800,-0.963,3113
1.804,-0.422,3113
1.808,0.147,3113
1.812,0.693,3113
1.816,1.143,3092
1.820,1.427,3092
1.824,1.518,3092
1.828,1.413,3092
1.832,1.115,3092
1.836,0.690,3092
1.840,-0.448,3092
1.844,-0.917,3092
1.848,-1.470,3092
1.852,-1.907,3116
1.856,-2.180,3116
1.860,-2.268,3116
1.864,-2.167,3116
1.868,-1.887,3116
1.872,-1.465,3116
1.876,-0.940,3116
1.880,-0.417,3116
1.884,0.142,3116
1.888,0.677,3116
1.892,1.117,3117
1.896,1.397,3117
1.900,1.488,3117
1.904,1.377,3117
1.908,1.077,3117
1.912,0.655,3117
1.916,0.128,3117
1.920,-1.097,3117
1.924,-1.555,3117
1.928,-1.948,3139
1.932,-2.203,3139
1.936,-2.270,3139
1.940,-2.163,3139
1.944,-1.863,3139
1.948,-1.440,3139
1.952,-0.910,3139
1.956,-0.383,3139
1.960,0.182,3139
1.964,0.718,3139
1.968,1.153,3114
1.972,1.423,3114
1.976,1.500,3114
1.980,1.387,3114
1.984,1.100,3114
1.988,0.662,3114
1.992,0.142,3114
1.996,-0.390,3114
2.000,-1.577,3114
2.004,-1.927,3127
2.008,-2.172,3127
2.012,-2.248,3127
2.016,-2.132,3127
2.020,-1.845,3127
2.024,-1.410,3127
2.028,-0.892,3127
2.032,-0.365,3127
2.036,0.188,3127
2.040,0.715,3127
2.044,1.150,3122
2.048,1.413,3122
2.052,1.498,3122
2.056,1.380,3122
2.060,1.077,3122
2.064,0.620,3122
2.068,0.128,3122
2.072,-0.407,3122
2.076,-0.978,3122
2.080,-2.020,3138
2.084,-2.300,3138
2.088,-2.192,3138
2.092,-1.900,3138
2.096,-1.468,3138
2.100,-0.667,3138
2.104,0.212,3138
2.108,0.703,3138
2.112,1.145,3121
2.116,1.502,3121
2.120,1.397,3121
2.124,1.113,3121
2.128,0.688,3121
2.132,0.180,3121
2.136,-0.375,3121
2.140,-0.943,3121
2.144,-1.492,3121
2.148,-1.923,3122
2.152,-2.188,3122
2.156,-2.283,3122
2.160,-1.823,3122
2.164,-1.458,3122
2.168,-0.938,3122
2.172,-0.407,3122
2.176,0.158,3122
2.180,0.703,3122
2.184,1.150,3130
2.188,1.410,3130
2.192,1.498,3130
2.196,1.395,3130
2.200,1.103,3130
2.204,0.682,3130
2.208,0.172,3130
2.212,-0.370,3130
2.216,-0.932,3130
2.220,-1.472,3130
2.224,-1.905,3120
2.228,-2.175,3120
2.232,-2.255,3120
2.236,-2.147,3120
2.240,-1.363,3120
2.244,-0.352,3120
2.248,0.172,3120
2.252,0.705,3120
2.256,1.143,3120
2.260,1.413,3120
2.264,1.498,3120
2.268,1.395,3120
2.272,1.095,3120
2.276,0.667,3120
2.280,0.170,3120
2.284,-0.370,3120
2.288,-0.922,3120
2.292,-1.462,3120
2.296,-1.893,3130
2.300,-2.167,3130
2.304,-2.250,3130
2.308,-2.143,3130
2.312,-1.853,3130
2.316,-1.417,3130
2.320,-0.280,3130
2.324,0.223,3130
2.328,0.738,3130
2.332,1.183,3093
2.336,1.433,3093
2.340,1.510,3093
2.344,1.405,3093
2.348,1.107,3093
2.352,0.682,3093
2.356,0.170,3093
2.360,-0.370,3093
2.364,-0.940,3093
2.368,-1.488,3093
2.372,-1.927,3134
2.376,-2.188,3134
2.380,-2.268,3134
2.384,-2.160,3134
2.388,-1.873,3134
2.392,-1.445,3134
2.396,-0.915,3134
2.400,0.268,3134
2.404,0.715,3134
2.408,1.150,3117
2.412,1.423,3117
2.416,1.508,3117
2.420,1.397,3117
2.424,1.100,3117
2.428,0.670,3117
2.432,0.152,3117
2.436,-0.412,3117
2.440,-0.948,3117
2.444,-1.492,3117
2.448,-1.935,3128
2.452,-2.192,3128
2.456,-2.283,3128
2.460,-2.080,3128
2.464,-1.875,3128
2.468,-1.448,3128
2.472,-0.927,3128
2.476,-0.390,3128
2.480,0.797,3128
2.484,1.183,3128
2.488,1.427,3119
2.492,1.515,3119
2.496,1.410,3119
2.500,1.087,3119
2.504,0.685,3119
2.508,0.177,3119
2.512,-0.370,3119
2.516,-0.932,3119
2.520,-1.470,3119
2.524,-1.907,3119
2.528,-2.178,3130
2.532,-2.263,3130
2.536,-2.152,3130
2.540,-1.867,3130
2.544,-1.442,3130
2.548,-0.930,3130
2.552,-0.398,3130
2.556,0.170,3130
2.560,1.195,3088
2.564,1.498,3088
2.568,1.383,3088
2.572,1.093,3088
2.576,0.667,3088
2.580,0.158,3088
2.584,-0.380,3088
2.588,-0.938,3088
2.592,-1.482,3088
2.596,-1.905,3088
2.600,-2.167,3103
2.604,-2.248,3103
2.608,-2.132,3103
2.612,-1.860,3103
2.616,-1.440,3103
2.620,-0.922,3103
2.624,-0.393,3103
2.628,0.170,3103
2.632,0.713,3103
2.636,1.150,3103
2.640,1.502,3122
2.644,1.097,3122
2.648,0.672,3122
2.652,0.158,3122
2.656,-0.378,3122
2.660,-0.932,3122
2.664,-1.472,3122
2.668,-1.903,3122
2.672,-2.167,3102
2.676,-2.248,3102
2.680,-2.138,3102
2.684,-1.855,3102
2.688,-1.423,3102
2.692,-0.910,3102
2.696,-0.380,3102
2.700,0.185,3102
2.704,0.718,3102
2.708,1.165,3102
2.712,1.425,3113
2.716,1.508,3113
2.720,1.050,3113
2.724,0.688,3113
2.728,0.182,3113
2.732,-0.360,3113
2.736,-0.922,3113
2.740,-1.470,3113
2.744,-1.897,3113
2.748,-2.163,3123
2.752,-2.228,3123
2.756,-2.132,3123
2.760,-1.847,3123
2.764,-1.405,3123
2.768,-0.890,3123
2.772,-0.367,3123
2.776,0.193,3123
2.780,0.728,3123
2.784,1.150,3123
2.788,1.417,3105
2.792,1.498,3105
2.796,1.383,3105
2.800,0.570,3105
2.804,0.105,3105
2.808,-0.410,3105
2.812,-0.973,3105
2.816,-1.522,3105
2.820,-1.972,3105
2.824,-2.197,3109
2.828,-2.283,3109
2.832,-2.152,3109
2.836,-1.865,3109
2.840,-1.420,3109
2.844,-0.270,3109
2.848,0.205,3109
2.852,0.748,3109
2.856,1.188,3109
2.860,1.455,3132
2.864,1.532,3132
2.868,1.413,3132
2.872,1.110,3132
2.876,0.688,3132
2.880,-0.468,3132
2.884,-0.940,3132
2.888,-1.498,3132
2.892,-1.938,3132
2.896,-2.188,3132
2.900,-2.263,3132
2.904,-2.143,3132
2.908,-1.847,3132
2.912,-1.387,3132
2.916,-0.890,3132
2.920,-0.362,3132
2.924,0.207,3132
2.928,0.738,3132
2.932,1.180,3132
2.936,1.438,3133
2.940,1.518,3133
2.944,1.407,3133
2.948,1.100,3133
2.952,0.667,3133
2.956,0.152,3133
2.960,-1.052,3133
2.964,-1.498,3133
2.968,-1.938,3133
2.972,-2.185,3136
2.976,-2.260,3136
2.980,-2.152,3136
2.984,-1.860,3136
2.988,-1.423,3136
2.992,-0.897,3136
2.996,-0.365,3136
3.000,0.207,3136
3.004,0.743,3136
3.008,1.188,3136
3.012,1.458,3133
3.016,1.538,3133
3.020,1.423,3133
3.024,1.117,3133
3.028,0.688,3133
3.032,0.155,3133
3.036,-0.380,3133
3.040,-1.603,3133
3.044,-1.962,3133
3.048,-2.212,3154
3.052,-2.292,3154
3.056,-2.167,3154
3.060,-1.867,3154
3.064,-1.430,3154
3.068,-0.907,3154
3.072,-0.362,3154
3.076,0.195,3154
3.080,0.743,3154
3.084,1.183,3154
3.088,1.455,3137
3.092,1.538,3137
3.096,1.430,3137
3.100,1.137,3137
3.104,0.698,3137
3.108,0.188,3137
3.112,-0.352,3137
3.116,-0.927,3137
3.120,-2.027,3137
3.124,-2.212,3129
3.128,-2.138,3129
3.132,-1.850,3129
3.136,-1.407,3129
3.140,-0.887,3129
3.144,-0.347,3129
3.148,0.220,3129
3.152,0.757,3129
3.156,1.188,3129
3.160,1.462,3143
3.164,1.530,3143
3.168,1.415,3143
3.172,1.107,3143
3.176,0.667,3143
3.180,0.152,3143
3.184,-0.385,3143
3.188,-0.968,3143
3.192,-1.502,3143
3.196,-1.938,3143
3.200,-2.255,3138
3.204,-1.853,3138
3.208,-1.415,3138
3.212,-0.905,3138
3.216,-0.372,3138
3.220,0.193,3138
3.224,0.733,3138
3.228,1.173,3138
3.232,1.430,3133
3.236,1.502,3133
3.240,1.353,3133
3.244,1.087,3133
3.248,0.637,3133
3.252,0.128,3133
3.256,-0.417,3133
3.260,-1.133,3133
3.264,-1.532,3133
3.268,-1.952,3133
3.272,-2.192,3136
3.276,-2.283,3136
3.280,-1.812,3136
3.284,-1.448,3136
3.288,-0.912,3136
3.292,-0.378,3136
3.296,0.188,3136
3.300,0.730,3136
3.304,1.175,3136
3.308,1.438,3130
3.312,1.518,3130
3.316,1.417,3130
3.320,1.117,3130
3.324,0.688,3130
3.328,0.152,3130
3.332,-0.378,3130
3.336,-0.963,3130
3.340,-1.508,3130
3.344,-1.942,3130
3.348,-2.192,3119
3.352,-2.272,3119
3.356,-2.167,3119
3.360,-1.347,3119
3.364,-0.905,3119
3.368,-0.370,3119
3.372,0.198,3119
3.376,0.748,3119
3.380,1.188,3119
3.384,1.458,3124
3.388,1.532,3124
3.392,1.417,3124
3.396,1.107,3124
3.400,0.672,3124
3.404,0.172,3124
3.408,-0.378,3124
3.412,-0.938,3124
3.416,-1.488,3124
3.420,-1.907,3124
3.424,-2.172,3115
3.428,-2.263,3115
3.432,-2.147,3115
3.436,-1.863,3115
3.440,-0.823,3115
3.444,-0.378,3115
3.448,0.188,3115
3.452,0.720,3115
3.456,1.163,3115
3.460,1.433,3126
3.464,1.510,3126
3.468,1.397,3126
3.472,1.097,3126
3.476,0.672,3126
3.480,0.158,3126
3.484,-0.375,3126
3.488,-0.932,3126
3.492,-1.472,3126
3.496,-1.897,3126
3.500,-2.150,3126
3.504,-2.223,3113
3.508,-2.112,3113
3.512,-1.820,3113
3.516,-1.385,3113
3.520,-0.258,3113
3.524,0.207,3113
3.528,0.745,3113
3.532,1.180,3113
3.536,1.438,3113
3.540,1.510,3125
3.544,1.397,3125
3.548,1.103,3125
3.552,0.677,3125
3.556,0.170,3125
3.560,-0.383,3125
3.564,-0.943,3125
3.568,-1.498,3125
3.572,-1.933,3125
3.576,-2.185,3125
3.580,-2.263,3110
3.584,-2.150,3110
3.588,-1.812,3110
3.592,-1.417,3110
3.596,-0.905,3110
3.600,0.278,3110
3.604,0.735,3110
3.608,1.357,3110
3.612,1.515,3119
3.616,1.413,3119
3.620,1.113,3119
3.624,0.688,3119
3.628,0.177,3119
3.632,-0.507,3119
3.636,-0.973,3119
3.640,-1.482,3119
3.644,-1.945,3119
3.648,-2.172,3119
3.652,-2.250,3135
3.656,-2.125,3135
3.660,-1.840,3135
3.664,-1.403,3135
3.668,-0.887,3135
3.672,-0.347,3135
3.676,0.217,3135
3.680,1.250,3135
3.684,1.458,3135
3.688,1.528,3118
3.692,1.407,3118
3.696,1.110,3118
3.700,0.677,3118
3.704,0.170,3118
3.708,-0.372,3118
3.712,-0.932,3118
3.716,-1.472,3118
3.720,-1.897,3118
3.724,-2.152,3118
3.728,-2.230,3108
3.732,-2.132,3108
3.736,-1.843,3108
3.740,-1.407,3108
3.744,-0.892,3108
3.748,-0.372,3108
3.752,0.193,3108
3.756,0.730,3108
3.760,1.458,3126
3.764,1.387,3126
3.768,1.090,3126
3.772,0.652,3126
3.776,0.138,3126
3.780,-0.412,3126
3.784,-0.983,3126
3.788,-1.528,3126
3.792,-1.962,3126
3.796,-2.203,3126
3.800,-2.283,3119
3.804,-2.150,3119
3.808,-1.865,3119
3.812,-1.427,3119
3.816,-0.912,3119
3.820,-0.378,3119
3.824,0.190,3119
3.828,0.733,3119
3.832,1.163,3119
3.836,1.427,3119
3.840,1.355,3114
3.844,0.657,3114
3.848,0.138,3114
3.852,-0.492,3114
3.856,-0.963,3114
3.860,-1.545,3114
3.864,-1.930,3114
3.868,-2.178,3114
3.872,-2.255,3119
3.876,-2.103,3119
3.880,-1.845,3119
3.884,-1.383,3119
3.888,-0.858,3119
3.892,-0.350,3119
3.896,0.253,3119
3.900,0.755,3119
3.904,1.198,3119
3.908,1.470,3119
3.912,1.512,3123
3.916,1.387,3123
3.920,0.453,3123
3.924,-0.463,3123
3.928,-0.988,3123
3.932,-1.540,3123
3.936,-1.972,3123
3.940,-2.223,3123
3.944,-2.312,3106
3.948,-2.183,3106
3.952,-1.890,3106
3.956,-1.455,3106
3.960,-0.917,3106
3.964,-0.372,3106
3.968,0.198,3106
3.972,0.718,3106
3.976,1.167,3106
3.980,1.433,3106
3.984,1.512,3133
3.988,1.048,3133
3.992,0.677,3133
3.996,0.152,3133
4.000,-1.055,3133
4.004,-1.520,3133
4.008,-1.948,3133
4.012,-2.203,3133
4.016,-2.272,3127
4.020,-1.812,3127
4.024,-1.442,3127
4.028,-0.912,3127
4.032,-0.378,3127
4.036,0.182,3127
4.040,0.733,3127
4.044,1.170,3127
4.048,1.427,3127
4.052,1.508,3137
4.056,1.387,3137
4.060,1.093,3137
4.064,0.652,3137
4.068,0.133,3137
4.072,-0.412,3137
4.076,-0.983,3137
4.080,-2.018,3137
4.084,-2.208,3137
4.088,-2.288,3126
4.092,-2.163,3126
4.096,-1.873,3126
4.100,-1.448,3126
4.104,-0.925,3126
4.108,-0.393,3126
4.112,0.177,3126
4.116,0.713,3126
4.120,1.147,3126
4.124,1.410,3126
4.128,1.488,3131
4.132,1.370,3131
4.136,1.070,3131
4.140,0.632,3131
4.144,0.128,3131
4.148,-0.412,3131
4.152,-0.978,3131
4.156,-1.522,3131
4.160,-2.243,3131
4.164,-2.257,3152
4.168,-2.140,3152
4.172,-1.855,3152
4.176,-1.413,3152
4.180,-0.890,3152
4.184,-0.345,3152
4.188,0.273,3152
4.192,0.757,3152
4.196,1.208,3152
4.200,1.472,3152
4.204,1.555,3120
4.208,1.417,3120
4.212,1.005,3120
4.216,0.613,3120
4.220,0.130,3120
4.224,-0.380,3120
4.228,-0.963,3120
4.232,-1.502,3120
4.236,-1.950,3120
4.240,-2.288,3132
4.244,-1.885,3132
4.248,-1.455,3132
4.252,-0.925,3132
4.256,-0.372,3132
4.260,0.217,3132
4.264,0.755,3132
4.268,1.208,3132
4.272,1.478,3132
4.276,1.548,3121
4.280,1.427,3121
4.284,1.117,3121
4.288,0.688,3121
4.292,0.172,3121
4.296,-0.380,3121
4.300,-0.970,3121
4.304,-1.502,3121
4.308,-1.942,3121
4.312,-2.190,3121
4.316,-2.283,3111
4.320,-1.820,3111
4.324,-1.452,3111
4.328,-0.922,3111
4.332,-0.383,3111
4.336,0.190,3111
4.340,0.752,3111
4.344,1.157,3111
4.348,1.427,3111
4.352,1.512,3129
4.356,1.387,3129
4.360,1.093,3129
4.364,0.460,3129
4.368,-0.393,3129
4.372,-0.970,3129
4.376,-1.502,3129
4.380,-1.940,3129
4.384,-2.183,3129
4.388,-2.260,3126
4.392,-2.143,3126
4.396,-1.853,3126
4.400,-0.807,3126
4.404,-0.347,3126
4.408,0.228,3126
4.412,0.775,3126
4.416,1.212,3126
4.420,1.478,3126
4.424,1.550,3130
4.428,1.417,3130
4.432,1.107,3130
4.436,0.662,3130
4.440,0.142,3130
4.444,-0.438,3130
4.448,-0.978,3130
4.452,-1.522,3130
4.456,-1.952,3130
4.460,-2.195,3130
4.464,-2.280,3114
4.468,-2.163,3114
4.472,-1.865,3114
4.476,-1.420,3114
4.480,-0.263,3114
4.484,0.335,3114
4.488,0.770,3114
4.492,1.208,3114
4.496,1.478,3114
4.500,1.450,3114
4.504,1.020,3114
4.508,0.613,3114
4.512,0.098,3114
4.516,-0.445,3114
4.520,-1.008,3114
4.524,-1.538,3114
4.528,-1.962,3114
4.532,-2.188,3114
4.536,-2.257,3114
4.540,-2.138,3117
4.544,-1.827,3117
4.548,-1.403,3117
4.552,-0.887,3117
4.556,-0.360,3117
4.560,0.833,3117
4.564,1.192,3117
4.568,1.452,3117
4.572,1.525,3117
4.576,1.413,3111
4.580,1.097,3111
4.584,0.660,3111
4.588,0.133,3111
4.592,-0.407,3111
4.596,-0.983,3111
4.600,-1.528,3111
4.604,-1.962,3111
4.608,-2.188,3111
4.612,-2.268,3111
4.616,-2.135,3121
4.620,-1.825,3121
4.624,-1.387,3121
4.628,-0.870,3121
4.632,-0.340,3121
4.636,0.223,3121
4.640,1.230,3121
4.644,1.433,3121
4.648,1.502,3121
4.652,1.375,3108
4.656,1.058,3108
4.660,0.613,3108
4.664,0.107,3108
4.668,-0.443,3108
4.672,-1.008,3108
4.676,-1.545,3108
4.680,-1.972,3108
4.684,-2.212,3108
4.688,-2.283,3108
4.692,-2.147,3117
4.696,-1.853,3117
4.700,-1.407,3117
4.704,-0.887,3117
4.708,-0.343,3117
4.712,0.228,3117
4.716,0.752,3117
4.720,1.458,3117
4.724,1.357,3110
4.728,1.052,3110
4.732,0.618,3110
4.736,0.102,3110
4.740,-0.443,3110
4.744,-1.627,3110
4.748,-1.972,3110
4.752,-2.210,3110
4.756,-2.272,3110
4.760,-2.152,3119
4.764,-1.853,3119
4.768,-1.410,3119
4.772,-0.887,3119
4.776,-0.345,3119
4.780,0.223,3119
4.784,0.767,3119
4.788,1.195,3119
4.792,1.460,3119
4.796,1.538,3119
4.800,1.050,3112
4.804,0.142,3112
4.808,-0.410,3112
4.812,-0.980,3112
4.816,-1.525,3112
4.820,-1.948,3112
4.824,-2.188,3112
4.828,-2.263,3112
4.832,-2.143,3126
4.836,-1.833,3126
4.840,-1.393,3126
4.844,-0.873,3126
4.848,-0.333,3126
4.852,0.235,3126
4.856,0.775,3126
4.860,1.198,3126
4.864,1.460,3126
4.868,1.528,3126
4.872,1.405,3122
4.876,1.087,3122
4.880,0.050,3122
4.884,-0.422,3122
4.888,-0.993,3122
4.892,-1.535,3122
4.896,-1.968,3122
4.900,-2.190,3122
4.904,-2.263,3122
4.908,-2.130,3114
4.912,-1.815,3114
4.916,-1.373,3114
4.920,-0.850,3114
4.924,-0.323,3114
4.928,0.258,3114
4.932,0.775,3114
4.936,1.205,3114
4.940,1.458,3114
4.944,1.512,3114
4.948,1.390,3130
4.952,1.065,3130
4.956,0.630,3130
4.960,-0.525,3130
4.964,-1.005,3130
4.968,-1.548,3130
4.972,-1.975,3130
4.976,-2.212,3130
4.980,-2.283,3130
4.984,-2.145,3128
4.988,-1.830,3128
4.992,-1.387,3128
4.996,-0.865,3128
5.000,-0.328,3128
5.004,0.253,3128
5.008,0.797,3128
5.012,1.230,3128
5.016,1.488,3128
5.020,1.555,3128
5.024,1.425,3125
5.028,1.107,3125
5.032,0.665,3125
5.036,0.138,3125
5.040,-1.077,3125
5.044,-1.540,3125
5.048,-1.975,3125
5.052,-2.220,3125
5.056,-2.292,3125
5.060,-2.172,3135
5.064,-1.870,3135
5.068,-1.440,3135
5.072,-0.902,3135
5.076,-0.362,3135
5.080,0.220,3135
5.084,0.767,3135
5.088,1.208,3135
5.092,1.468,3135
5.096,1.548,3135
5.100,1.423,3128
5.104,1.097,3128
5.108,0.677,3128
5.112,0.150,3128
5.116,-0.407,3128
5.120,-1.620,3128
5.124,-2.248,3128
5.128,-2.288,3128
5.132,-2.163,3124
5.136,-1.853,3124
5.140,-1.403,3124
5.144,-0.868,3124
5.148,-0.307,3124
5.152,0.258,3124
5.156,0.792,3124
5.160,1.327,3124
5.164,1.540,3124
5.168,1.415,3133
5.172,1.077,3133
5.176,0.652,3133
5.180,0.128,3133
5.184,-0.420,3133
5.188,-1.002,3133
5.192,-1.548,3133
5.196,-1.982,3133
5.200,-2.295,3133
5.204,-2.152,3130
5.208,-1.853,3130
5.212,-1.407,3130
5.216,-0.873,3130
5.220,-0.328,3130
5.224,0.260,3130
5.228,0.818,3130
5.232,1.248,3130
5.236,1.498,3130
5.240,1.567,3130
5.244,1.433,3120
5.248,1.100,3120
5.252,0.652,3120
5.256,0.110,3120
5.260,-0.453,3120
5.264,-1.028,3120
5.268,-1.580,3120
5.272,-2.007,3120
5.276,-2.252,3120
5.280,-2.130,3133
5.284,-1.375,3133
5.288,-0.863,3133
5.292,-0.328,3133
5.296,0.263,3133
5.300,0.815,3133
5.304,1.250,3133
5.308,1.502,3133
5.312,1.580,3133
5.316,1.438,3112
5.320,1.113,3112
5.324,0.667,3112
5.328,0.138,3112
5.332,-0.422,3112
5.336,-1.012,3112
5.340,-1.573,3112
5.344,-2.010,3112
5.348,-2.257,3112
5.352,-2.308,3112
5.356,-2.183,3127
5.360,-1.337,3127
5.364,-0.887,3127
5.368,-0.335,3127
5.372,0.237,3127
5.376,0.787,3127
5.380,1.222,3127
5.384,1.488,3127
5.388,1.552,3127
5.392,1.420,3126
5.396,1.077,3126
5.400,0.637,3126
5.404,0.115,3126
5.408,-0.440,3126
5.412,-1.022,3126
5.416,-1.577,3126
5.420,-2.018,3126
5.424,-2.252,3126
5.428,-2.308,3126
5.432,-2.172,3075
5.436,-1.873,3075
5.440,-0.802,3075
5.444,-0.338,3075
5.448,0.235,3075
5.452,0.785,3075
5.456,1.222,3075
5.460,1.488,3075
5.464,1.555,3075
5.468,1.417,3130
5.472,1.077,3130
5.476,0.632,3130
5.480,0.037,3130
5.484,-0.468,3130
5.488,-1.028,3130
5.492,-1.585,3130
5.496,-2.018,3130
5.500,-2.265,3130
5.504,-2.268,3130
5.508,-1.873,3118
5.512,-1.413,3118
5.516,-0.892,3118
5.520,0.340,3118
5.524,0.785,3118
5.528,1.222,3118
5.532,1.472,3118
5.536,1.540,3118
5.540,1.383,3124
5.544,1.073,3124
5.548,0.627,3124
5.552,0.107,3124
5.556,-0.448,3124
5.560,-1.020,3124
5.564,-1.567,3124
5.568,-1.988,3124
5.572,-2.225,3124
5.576,-2.283,3124
5.580,-2.163,3124
5.584,-1.847,3127
5.588,-1.380,3127
5.592,-0.833,3127
5.596,-0.325,3127
5.600,0.873,3127
5.604,1.238,3127
5.608,1.472,3127
5.612,1.548,3127
5.616,1.415,3127
5.620,1.090,3131
5.624,0.618,3131
5.628,0.102,3131
5.632,-0.460,3131
5.636,-1.052,3131
5.640,-1.607,3131
5.644,-2.025,3131
5.648,-2.263,3131
5.652,-2.303,3131
5.656,-2.167,3131
5.660,-1.847,3155
5.664,-1.380,3155
5.668,-0.845,3155
5.672,-0.297,3155
5.676,0.265,3155
5.680,1.295,3155
5.684,1.472,3155
5.688,1.538,3155
5.692,1.397,3155
5.696,1.075,3101
5.700,0.613,3101
5.704,0.092,3101
5.708,-0.463,3101
5.712,-1.052,3101
5.716,-1.607,3101
5.720,-2.022,3101
5.724,-2.263,3101
5.728,-2.317,3101
5.732,-2.188,3101
5.736,-1.887,3104
5.740,-1.420,3104
5.744,-0.892,3104
5.748,-0.347,3104
5.752,0.233,3104
5.756,0.777,3104
5.760,1.478,3104
5.764,1.528,3104
5.768,1.393,3104
5.772,1.073,3109
5.776,0.618,3109
5.780,0.105,3109
5.784,-0.432,3109
5.788,-1.012,3109
5.792,-1.552,3109
5.796,-1.978,3109
5.800,-2.210,3109
5.804,-2.268,3109
5.808,-2.138,3109
5.812,-1.833,3103
5.816,-1.380,3103
5.820,-0.850,3103
5.824,-0.297,3103
5.828,0.287,3103
5.832,0.835,3103
5.836,1.260,3103
5.840,1.558,3103
5.844,1.427,3103
5.848,1.103,3123
5.852,0.627,3123
5.856,0.058,3123
5.860,-0.448,3123
5.864,-1.032,3123
5.868,-1.617,3123
5.872,-2.018,3123
5.876,-2.260,3123
5.880,-2.312,3123
5.884,-2.132,3123
5.888,-1.847,3119
5.892,-1.377,3119
5.896,-0.207,3119
5.900,0.585,3119
5.904,1.275,3119
5.908,1.500,3119
5.912,1.558,3119
5.916,1.420,3119
5.920,0.557,3120
5.924,-0.453,3120
5.928,-1.032,3120
5.932,-1.580,3120
5.936,-2.007,3120
5.940,-2.252,3120
5.944,-2.297,3120
5.948,-2.163,3120
5.952,-1.850,3136
5.956,-1.383,3136
5.960,-0.855,3136
5.964,-0.307,3136
5.968,0.265,3136
5.972,0.818,3136
5.976,1.248,3136
5.980,1.498,3136
5.984,1.552,3136
5.988,1.423,3136
5.992,1.103,3132
5.996,0.637,3132
6.000,-0.532,3132
6.004,-1.008,3132
6.008,-1.552,3132
6.012,-1.980,3132
6.016,-2.220,3132
6.020,-2.288,3132
6.024,-2.138,3132
6.028,-1.843,3133
6.032,-1.373,3133
6.036,-0.833,3133
6.040,-0.282,3133
6.044,0.302,3133
6.048,0.855,3133
6.052,1.298,3133
6.056,1.528,3133
6.060,1.580,3133
6.064,1.430,3133
6.068,1.097,3119
6.072,0.623,3119
6.076,0.100,3119
6.080,-1.147,3119
6.084,-1.617,3119
6.088,-2.045,3119
6.092,-2.283,3119
6.096,-2.337,3119
6.100,-2.203,3119
6.104,-1.875,3133
6.108,-1.415,3133
6.112,-0.882,3133
6.116,-0.333,3133
6.120,0.247,3133
6.124,0.792,3133
6.128,1.228,3133
6.132,1.478,3133
6.136,1.548,3133
6.140,1.417,3133
6.144,1.093,3159
6.148,0.627,3159
6.152,0.117,3159
6.156,-0.432,3159
6.160,-1.653,3159
6.164,-1.992,3159
6.168,-2.245,3159
6.172,-2.297,3159
6.176,-2.163,3159
6.180,-1.853,3124
6.184,-1.380,3124
6.188,-0.858,3124
6.192,-0.302,3124
6.196,0.275,3124
6.200,0.828,3124
6.204,1.250,3124
6.208,1.492,3124
6.212,1.538,3124
6.216,1.390,3124
6.220,1.062,3115
6.224,0.583,3115
6.228,0.062,3115
6.232,-0.497,3115
6.236,-1.070,3115
6.240,-2.090,3115
6.244,-2.265,3115
6.248,-2.300,3115
6.252,-2.163,3115
6.256,-1.833,3130
6.260,-1.370,3130
6.264,-0.848,3130
6.268,-0.292,3130
6.272,0.275,3130
6.276,0.828,3130
6.280,1.250,3130
6.284,1.500,3130
6.288,1.552,3130
6.292,1.417,3130
6.296,1.093,3141
6.300,0.618,3141
6.304,0.098,3141
6.308,-0.453,3141
6.312,-1.032,3141
6.316,-1.580,3141
6.320,-2.248,3141
6.324,-2.270,3141
6.328,-2.127,3141
6.332,-1.808,3128
6.336,-1.343,3128
6.340,-0.812,3128
6.344,-0.260,3128
6.348,0.307,3128
6.352,0.855,3128
6.356,1.262,3128
6.360,1.505,3128
6.364,1.548,3128
6.368,1.397,3128
6.372,1.065,3112
6.376,0.580,3112
6.380,0.058,3112
6.384,-0.512,3112
6.388,-1.085,3112
6.392,-1.623,3112
6.396,-2.025,3112
6.400,-2.288,3112
6.404,-2.147,3112
6.408,-1.830,3131
6.412,-1.367,3131
6.416,-0.843,3131
6.420,-0.285,3131
6.424,0.292,3131
6.428,0.838,3131
6.432,1.260,3131
6.436,1.508,3131
6.440,1.558,3131
6.444,1.420,3131
6.448,1.097,3125
6.452,0.623,3125
6.456,0.107,3125
6.460,-0.448,3125
6.464,-1.018,3125
6.468,-1.570,3125
6.472,-1.988,3125
6.476,-2.223,3125
6.480,-2.100,3125
6.484,-1.820,3129
6.488,-1.353,3129
6.492,-0.828,3129
6.496,-0.287,3129
6.500,0.285,3129
6.504,0.825,3129
6.508,1.248,3129
6.512,1.492,3129
6.516,1.550,3129
6.520,1.417,3129
6.524,1.093,3098
6.528,0.623,3098
6.532,0.105,3098
6.536,-0.450,3098
6.540,-1.032,3098
6.544,-1.577,3098
6.548,-1.992,3098
6.552,-2.217,3098
6.556,-2.270,3098
6.560,-1.742,3112
6.564,-0.812,3112
6.568,-0.270,3112
6.572,0.302,3112
6.576,0.848,3112
6.580,1.268,3112
6.584,1.515,3112
6.588,1.560,3112
6.592,1.413,3112
6.596,1.093,3112
6.600,0.620,3129
6.604,0.092,3129
6.608,-0.468,3129
6.612,-1.045,3129
6.616,-1.603,3129
6.620,-2.020,3129
6.624,-2.252,3129
6.628,-2.297,3129
6.632,-2.147,3129
6.636,-1.817,3129
6.640,-0.770,3104
6.644,0.318,3104
6.648,0.838,3104
6.652,1.265,3104
6.656,1.508,3104
6.660,1.552,3104
6.664,1.420,3104
6.668,1.087,3104
6.672,0.613,3118
6.676,0.070,3118
6.680,-0.492,3118
6.684,-1.065,3118
6.688,-1.613,3118
6.692,-2.020,3118
6.696,-2.257,3118
6.700,-2.303,3118
6.704,-2.152,3118
6.708,-1.840,3118
6.712,-1.380,3101
6.716,-0.828,3101
6.720,0.393,3101
6.724,0.873,3101
6.728,1.268,3101
6.732,1.508,3101
6.736,1.552,3101
6.740,1.397,3101
6.744,1.055,3101
6.748,0.588,3090
6.752,0.028,3090
6.756,-0.525,3090
6.760,-1.100,3090
6.764,-1.650,3090
6.768,-2.062,3090
6.772,-2.292,3090
6.776,-2.342,3090
6.780,-2.197,3090
6.784,-1.873,3090
6.788,-1.405,3111
6.792,-0.850,3111
6.796,-0.292,3111
6.800,0.910,3111
6.804,1.238,3111
6.808,1.498,3111
6.812,1.538,3111
6.816,1.387,3111
6.820,1.052,3111
6.824,0.585,3117
6.828,0.050,3117
6.832,-0.507,3117
6.836,-1.087,3117
6.840,-1.627,3117
6.844,-2.042,3117
6.848,-2.265,3117
6.852,-2.308,3117
6.856,-2.163,3117
6.860,-1.840,3117
6.864,-1.373,3109
6.868,-0.823,3109
6.872,-0.268,3109
6.876,0.305,3109
6.880,1.327,3109
6.884,1.508,3109
6.888,1.545,3109
6.892,1.397,3109
6.896,1.048,3109
6.900,0.610,3113
6.904,0.070,3113
6.908,-0.492,3113
6.912,-1.062,3113
6.916,-1.613,3113
6.920,-2.027,3113
6.924,-2.263,3113
6.928,-2.308,3113
6.932,-2.167,3113
6.936,-1.845,3113
6.940,-1.370,3107
6.944,-0.823,3107
6.948,-0.268,3107
6.952,0.297,3107
6.956,0.848,3107
6.960,1.502,3107
6.964,1.542,3107
6.968,1.397,3107
6.972,1.070,3107
6.976,0.610,3124
6.980,0.072,3124
6.984,-0.463,3124
6.988,-1.048,3124
6.992,-1.580,3124
6.996,-2.007,3124
7.000,-2.248,3124
7.004,-2.300,3124
7.008,-2.163,3124
7.012,-1.847,3124
7.016,-1.380,3128
7.020,-0.820,3128
7.024,-0.302,3128
7.028,0.263,3128
7.032,0.795,3128
7.036,1.220,3128
7.040,1.498,3128
7.044,1.337,3128
7.048,1.040,3128
7.052,0.578,3143
7.056,0.037,3143
7.060,-0.502,3143
7.064,-1.083,3143
7.068,-1.623,3143
7.072,-2.025,3143
7.076,-2.255,3143
7.080,-2.297,3143
7.084,-2.143,3143
7.088,-1.823,3143
7.092,-1.350,3135
7.096,-0.812,3135
7.100,-0.268,3135
7.104,0.300,3135
7.108,0.848,3135
7.112,1.252,3135
7.116,1.488,3135
7.120,1.343,3135
7.124,1.058,3135
7.128,0.588,3137
7.132,0.052,3137
7.136,-0.500,3137
7.140,-1.067,3137
7.144,-1.613,3137
7.148,-2.018,3137
7.152,-2.248,3137
7.156,-2.292,3137
7.160,-2.143,3137
7.164,-1.823,3137
7.168,-1.363,3138
7.172,-0.812,3138
7.176,-0.268,3138
7.180,0.302,3138
7.184,0.850,3138
7.188,1.265,3138
7.192,1.510,3138
7.196,1.558,3138
7.200,1.008,3138
7.204,0.598,3138
7.208,0.062,3138
7.212,-0.502,3138
7.216,-1.070,3138
7.220,-1.615,3138
7.224,-2.027,3138
7.228,-2.250,3138
7.232,-2.295,3138
7.236,-2.140,3138
7.240,-1.820,3138
7.244,-1.353,3113
7.248,-0.823,3113
7.252,-0.273,3113
7.256,0.292,3113
7.260,0.833,3113
7.264,1.238,3113
7.268,1.488,3113
7.272,1.542,3113
7.276,1.393,3113
7.280,0.527,3123
7.284,-0.512,3123
7.288,-1.058,3123
7.292,-1.583,3123
7.296,-2.002,3123
7.300,-2.217,3123
7.304,-2.283,3123
7.308,-2.143,3123
7.312,-1.812,3123
7.316,-1.343,3102
7.320,-0.810,3102
7.324,-0.263,3102
7.328,0.310,3102
7.332,0.855,3102
7.336,1.262,3102
7.340,1.492,3102
7.344,1.542,3102
7.348,1.380,3102
7.352,1.052,3102
7.356,0.580,3134
7.360,-0.603,3134
7.364,-1.067,3134
7.368,-1.613,3134
7.372,-2.022,3134
7.376,-2.252,3134
7.380,-2.297,3134
7.384,-2.147,3134
7.388,-1.823,3134
7.392,-1.353,3124
7.396,-0.818,3124
7.400,-0.273,3124
7.404,0.352,3124
7.408,0.860,3124
7.412,1.235,3124
7.416,1.482,3124
7.420,1.528,3124
7.424,1.373,3124
7.428,1.020,3124
7.432,0.583,3126
7.436,0.068,3126
7.440,-1.133,3126
7.444,-1.570,3126
7.448,-1.978,3126
7.452,-2.188,3126
7.456,-2.243,3126
7.460,-2.098,3126
7.464,-1.772,3126
7.468,-1.300,3128
7.472,-0.767,3128
7.476,-0.242,3128
7.480,0.318,3128
7.484,0.858,3128
7.488,1.258,3128
7.492,1.490,3128
7.496,1.540,3128
7.500,1.387,3128
7.504,1.058,3128
7.508,0.590,3135
7.512,0.062,3135
7.516,-0.492,3135
7.520,-1.663,3135
7.524,-2.013,3135
7.528,-2.223,3135
7.532,-2.270,3135
7.536,-2.127,3135
7.540,-1.810,3135
7.544,-1.337,3113
7.548,-0.807,3113
7.552,-0.263,3113
7.556,0.297,3113
7.560,0.838,3113
7.564,1.248,3113
7.568,1.475,3113
7.572,1.518,3113
7.576,1.367,3113
7.580,1.048,3113
7.584,0.580,3113
7.588,0.062,3126
7.592,-0.502,3126
7.596,-1.067,3126
7.600,-2.087,3126
7.604,-2.245,3126
7.608,-2.290,3126
7.612,-2.120,3126
7.616,-1.805,3126
7.620,-1.347,3126
7.624,-0.820,3131
7.628,-0.268,3131
7.632,0.287,3131
7.636,0.818,3131
7.640,1.228,3131
7.644,1.460,3131
7.648,1.512,3131
7.652,1.383,3131
7.656,1.067,3131
7.660,0.610,3131
7.664,0.100,3124
7.668,-0.458,3124
7.672,-1.022,3124
7.676,-1.550,3124
7.680,-2.210,3124
7.684,-2.250,3124
7.688,-2.107,3124
7.692,-1.790,3124
7.696,-1.347,3124
7.700,-0.823,3113
7.704,-0.268,3113
7.708,0.292,3113
7.712,0.828,3113
7.716,1.235,3113
7.720,1.485,3113
7.724,1.532,3113
7.728,1.383,3113
7.732,1.052,3113
7.736,0.580,3113
7.740,0.058,3112
7.744,-0.520,3112
7.748,-1.077,3112
7.752,-1.617,3112
7.756,-2.027,3112
7.760,-2.283,3112
7.764,-2.147,3112
7.768,-1.823,3112
7.772,-1.367,3112
7.776,-0.833,3105
7.780,-0.275,3105
7.784,0.290,3105
7.788,0.825,3105
7.792,1.232,3105
7.796,1.472,3105
7.800,1.515,3105
7.804,1.370,3105
7.808,1.038,3105
7.812,0.578,3105
7.816,0.062,3105
7.820,-0.522,3105
7.824,-1.055,3105
7.828,-1.583,3105
7.832,-1.985,3105
7.836,-2.195,3105
7.840,-2.053,3105
7.844,-1.782,3105
7.848,-1.330,3105
7.852,-0.807,3095
7.856,-0.260,3095
7.860,0.297,3095
7.864,0.833,3095
7.868,1.235,3095
7.872,1.472,3095
7.876,1.528,3095
7.880,1.383,3095
7.884,1.062,3095
7.888,0.600,3095
7.892,0.087,3113
7.896,-0.482,3113
7.900,-1.028,3113
7.904,-1.555,3113
7.908,-1.965,3113
7.912,-2.183,3113
7.916,-2.243,3113
7.920,-1.712,3113
7.924,-1.333,3113
7.928,-0.812,3111
7.932,-0.268,3111
7.936,0.278,3111
7.940,0.815,3111
7.944,1.222,3111
7.948,1.458,3111
7.952,1.500,3111
7.956,1.357,3111
7.960,0.938,3111
7.964,0.573,3111
7.968,0.058,3104
7.972,-0.502,3104
7.976,-1.062,3104
7.980,-1.603,3104
7.984,-2.002,3104
7.988,-2.215,3104
7.992,-2.268,3104
7.996,-2.127,3104
8.000,-1.258,3104
8.004,-0.823,3107
8.008,-0.273,3107
8.012,0.278,3107
8.016,0.812,3107
8.020,1.218,3107
8.024,1.455,3107
8.028,1.500,3107
8.032,1.350,3107
8.036,1.030,3107
8.040,0.580,3107
8.044,0.060,3073
8.048,-0.500,3073
8.052,-1.045,3073
8.056,-1.573,3073
8.060,-1.980,3073
8.064,-2.190,3073
8.068,-2.248,3073
8.072,-2.092,3073
8.076,-1.772,3073
8.080,-0.713,3136
8.084,0.333,3136
8.088,0.823,3136
8.092,1.222,3136
8.096,1.465,3136
8.100,1.508,3136
8.104,1.360,3136
8.108,1.028,3136
8.112,0.580,3136
8.116,0.055,3110
8.120,-0.507,3110
8.124,-1.067,3110
8.128,-1.610,3110
8.132,-2.007,3110
8.136,-2.223,3110
8.140,-2.272,3110
8.144,-2.127,3110
8.148,-1.808,3110
8.152,-1.347,3110
8.156,-0.828,3135
8.160,0.365,3135
8.164,0.890,3135
8.168,1.225,3135
8.172,1.448,3135
8.176,1.500,3135
8.180,1.343,3135
8.184,1.020,3135
8.188,0.568,3135
8.192,0.058,3127
8.196,-0.522,3127
8.200,-1.067,3127
8.204,-1.585,3127
8.208,-1.992,3127
8.212,-2.192,3127
8.216,-2.243,3127
8.220,-2.087,3127
8.224,-1.770,3127
8.228,-1.312,3127
8.232,-0.777,3133
8.236,-0.230,3133
8.240,0.938,3133
8.244,1.272,3133
8.248,1.500,3133
8.252,1.552,3133
8.256,1.407,3133
8.260,1.075,3133
8.264,0.598,3133
8.268,0.068,3141
8.272,-0.507,3141
8.276,-1.073,3141
8.280,-1.627,3141
8.284,-2.027,3141
8.288,-2.250,3141
8.292,-2.285,3141
8.296,-2.127,3141
8.300,-1.805,3141
8.304,-1.335,3141
8.308,-0.782,3134
8.312,-0.228,3134
8.316,0.340,3134
8.320,1.353,3134
8.324,1.532,3134
8.328,1.573,3134
8.332,1.410,3134
8.336,1.065,3134
8.340,0.588,3134
8.344,0.052,3109
8.348,-0.537,3109
8.352,-1.107,3109
8.356,-1.653,3109
8.360,-2.053,3109
8.364,-2.265,3109
8.368,-2.295,3109
8.372,-2.127,3109
8.376,-1.788,3109
8.380,-1.323,3109
8.384,-0.777,3133
8.388,-0.217,3133
8.392,0.352,3133
8.396,0.890,3133
8.400,1.538,3133
8.404,1.552,3133
8.408,1.393,3133
8.412,1.058,3133
8.416,0.580,3133
8.420,0.052,3126
8.424,-0.542,3126
8.428,-1.105,3126
8.432,-1.653,3126
8.436,-2.058,3126
8.440,-2.270,3126
8.444,-2.303,3126
8.448,-2.140,3126
8.452,-1.808,3126
8.456,-1.327,3126
8.460,-0.780,3127
8.464,-0.220,3127
8.468,0.338,3127
8.472,0.877,3127
8.476,1.298,3127
8.480,1.542,3127
8.484,1.390,3127
8.488,1.052,3127
8.492,0.575,3127
8.496,0.043,3133
8.500,-0.547,3133
8.504,-1.127,3133
8.508,-1.673,3133
8.512,-2.087,3133
8.516,-2.297,3133
8.520,-2.333,3133
8.524,-2.172,3133
8.528,-1.843,3133
8.532,-1.345,3133
8.536,-0.802,3095
8.540,-0.223,3095
8.544,0.352,3095
8.548,0.897,3095
8.552,1.312,3095
8.556,1.530,3095
8.560,1.347,3095
8.564,1.048,3095
8.568,0.565,3095
8.572,-0.010,3113
8.576,-0.573,3113
8.580,-1.133,3113
8.584,-1.675,3113
8.588,-2.087,3113
8.592,-2.295,3113
8.596,-2.317,3113
8.600,-2.147,3113
8.604,-1.812,3113
8.608,-1.333,3113
8.612,-0.782,3077
8.616,-0.228,3077
8.620,0.347,3077
8.624,0.877,3077
8.628,1.292,3077
8.632,1.502,3077
8.636,1.542,3077
8.640,0.955,3077
8.644,0.542,3077
8.648,0.028,3077
8.652,-0.562,3129
8.656,-1.147,3129
8.660,-1.692,3129
8.664,-2.092,3129
8.668,-2.308,3129
8.672,-2.342,3129
8.676,-2.180,3129
8.680,-1.847,3129
8.684,-1.363,3129
8.688,-0.823,3129
8.692,-0.263,3127
8.696,0.338,3127
8.700,0.865,3127
8.704,1.262,3127
8.708,1.498,3127
8.712,1.528,3127
8.716,1.353,3127
8.720,0.427,3127
8.724,-0.028,3127
8.728,-0.588,3122
8.732,-1.173,3122
8.736,-1.692,3122
8.740,-2.083,3122
8.744,-2.283,3122
8.748,-2.290,3122
8.752,-2.123,3122
8.756,-1.778,3122
8.760,-1.292,3122
8.764,-0.750,3122
8.768,-0.203,3137
8.772,0.378,3137
8.776,0.902,3137
8.780,1.308,3137
8.784,1.508,3137
8.788,1.538,3137
8.792,1.367,3137
8.796,1.018,3137
8.800,-0.087,3117
8.804,-1.143,3117
8.808,-1.688,3117
8.812,-2.092,3117
8.816,-2.297,3117
8.820,-2.333,3117
8.824,-2.163,3117
8.828,-1.817,3117
8.832,-1.333,3117
8.836,-0.777,3117
8.840,-0.225,3126
8.844,0.372,3126
8.848,0.900,3126
8.852,1.312,3126
8.856,1.530,3126
8.860,1.558,3126
8.864,1.397,3126
8.868,1.052,3126
8.872,0.573,3126
8.876,0.043,3126
8.880,-1.208,3111
8.884,-2.067,3111
8.888,-2.288,3111
8.892,-2.312,3111
8.896,-2.147,3111
8.900,-1.810,3111
8.904,-1.327,3111
8.908,-0.770,3111
8.912,-0.207,3123
8.916,0.388,3123
8.920,0.917,3123
8.924,1.333,3123
8.928,1.545,3123
8.932,1.575,3123
8.936,1.397,3123
8.940,1.048,3123
8.944,0.570,3123
8.948,0.022,3123
8.952,-0.550,3107
8.956,-1.180,3107
8.960,-2.138,3107
8.964,-2.322,3107
8.968,-2.348,3107
8.972,-2.188,3107
8.976,-1.830,3107
8.980,-1.363,3107
8.984,-0.812,3107
8.988,-0.240,3107
8.992,0.372,3107
8.996,0.897,3107
9.000,1.323,3107
9.004,1.540,3107
9.008,1.577,3107
9.012,1.417,3107
9.016,1.062,3107
9.020,0.580,3107
9.024,0.048,3107
9.028,-0.537,3107
9.032,-1.137,3107
9.036,-1.673,3107
9.040,-2.333,3107
9.044,-2.348,3107
9.048,-2.183,3107
9.052,-1.850,3107
9.056,-1.365,3107
9.060,-0.807,3107
9.064,-0.230,3130
9.068,0.378,3130
9.072,0.912,3130
9.076,1.350,3130
9.080,1.573,3130
9.084,1.623,3130
9.088,1.452,3130
9.092,1.090,3130
9.096,0.608,3130
9.100,0.052,3130
9.104,-0.532,3128
9.108,-1.140,3128
9.112,-1.690,3128
9.116,-2.103,3128
9.120,-2.333,3128
9.124,-2.178,3128
9.128,-1.827,3128
9.132,-1.337,3128
9.136,-0.770,3128
9.140,-0.207,3148
9.144,0.400,3148
9.148,0.940,3148
9.152,1.375,3148
9.156,1.595,3148
9.160,1.635,3148
9.164,1.462,3148
9.168,1.097,3148
9.172,0.598,3148
9.176,0.043,3148
9.180,-0.552,3134
9.184,-1.163,3134
9.188,-1.700,3134
9.192,-2.120,3134
9.196,-2.333,3134
9.200,-2.143,3134
9.204,-1.833,3134
9.208,-1.308,3134
9.212,-0.745,3134
9.216,-0.147,3126
9.220,0.422,3126
9.224,0.958,3126
9.228,1.383,3126
9.232,1.597,3126
9.236,1.627,3126
9.240,1.435,3126
9.244,1.070,3126
9.248,0.578,3126
9.252,0.022,3126
9.256,-0.573,3126
9.260,-1.173,3126
9.264,-1.722,3126
9.268,-2.127,3126
9.272,-2.340,3126
9.276,-2.365,3126
9.280,-1.768,3126
9.284,-1.337,3126
9.288,-0.772,3126
9.292,-0.205,3144
9.296,0.398,3144
9.300,0.938,3144
9.304,1.355,3144
9.308,1.577,3144
9.312,1.597,3144
9.316,1.425,3144
9.320,1.067,3144
9.324,0.583,3144
9.328,0.037,3144
9.332,-0.550,3122
9.336,-1.153,3122
9.340,-1.690,3122
9.344,-2.130,3122
9.348,-2.312,3122
9.352,-2.337,3122
9.356,-2.163,3122
9.360,-1.222,3122
9.364,-0.730,3122
9.368,-0.147,3112
9.372,0.415,3112
9.376,0.950,3112
9.380,1.357,3112
9.384,1.573,3112
9.388,1.593,3112
9.392,1.413,3112
9.396,1.048,3112
9.400,0.555,3112
9.404,0.018,3112
9.408,-0.573,3128
9.412,-1.180,3128
9.416,-1.715,3128
9.420,-2.125,3128
9.424,-2.333,3128
9.428,-2.350,3128
9.432,-2.180,3128
9.436,-1.827,3128
9.440,-0.688,3128
9.444,-0.203,3134
9.448,0.393,3134
9.452,0.927,3134
9.456,1.357,3134
9.460,1.575,3134
9.464,1.597,3134
9.468,1.427,3134
9.472,1.060,3134
9.476,0.575,3134
9.480,0.018,3134
9.484,-0.578,3141
9.488,-1.188,3141
9.492,-1.730,3141
9.496,-2.138,3141
9.500,-2.348,3141
9.504,-2.375,3141
9.508,-2.197,3141
9.512,-1.847,3141
9.516,-1.353,3141
9.520,-0.113,3123
9.524,0.932,3123
9.528,1.355,3123
9.532,1.570,3123
9.536,1.623,3123
9.540,1.425,3123
9.544,1.070,3123
9.548,0.583,3123
9.552,0.028,3123
9.556,-0.570,3126
9.560,-1.180,3126
9.564,-1.728,3126
9.568,-2.132,3126
9.572,-2.342,3126
9.576,-2.368,3126
9.580,-2.192,3126
9.584,-1.845,3126
9.588,-1.350,3126
9.592,-0.777,3126
9.596,-0.207,3119
9.600,1.018,3119
9.604,1.343,3119
9.608,1.573,3119
9.612,1.583,3119
9.616,1.413,3119
9.620,1.052,3119
9.624,0.552,3119
9.628,0.015,3119
9.632,-0.568,3121
9.636,-1.173,3121
9.640,-1.710,3121
9.644,-2.112,3121
9.648,-2.322,3121
9.652,-2.333,3121
9.656,-2.160,3121
9.660,-1.802,3121
9.664,-1.302,3121
9.668,-0.738,3121
9.672,-0.172,3121
9.676,0.412,3094
9.680,1.420,3094
9.684,1.573,3094
9.688,1.593,3094
9.692,1.415,3094
9.696,1.038,3094
9.700,0.542,3094
9.704,-0.015,3094
9.708,-0.588,3094
9.712,-1.180,3146
9.716,-1.742,3146
9.720,-2.132,3146
9.724,-2.333,3146
9.728,-2.360,3146
9.732,-2.163,3146
9.736,-1.823,3146
9.740,-1.330,3146
9.744,-0.748,3146
9.748,-0.188,3146
9.752,0.412,3111
9.756,0.958,3111
9.760,1.590,3111
9.764,1.587,3111
9.768,1.410,3111
9.772,1.038,3111
9.776,0.532,3111
9.780,-0.033,3111
9.784,-0.610,3111
9.788,-1.202,3118
9.792,-1.772,3118
9.796,-2.143,3118
9.800,-2.340,3118
9.804,-2.353,3118
9.808,-2.180,3118
9.812,-1.823,3118
9.816,-1.330,3118
9.820,-0.755,3118
9.824,-0.180,3118
9.828,0.417,3101
9.832,0.980,3101
9.836,1.380,3101
9.840,1.593,3101
9.844,1.427,3101
9.848,1.060,3101
9.852,0.568,3101
9.856,0.013,3101
9.860,-0.578,3101
9.864,-1.180,3120
9.868,-1.732,3120
9.872,-2.123,3120
9.876,-2.328,3120
9.880,-2.340,3120
9.884,-2.163,3120
9.888,-1.808,3120
9.892,-1.308,3120
9.896,-0.730,3120
9.900,-0.172,3120
9.904,0.420,3114
9.908,0.978,3114
9.912,1.380,3114
9.916,1.585,3114
9.920,1.383,3114
9.924,1.060,3114
9.928,0.562,3114
9.932,0.018,3114
9.936,-0.573,3114
9.940,-1.175,3079
9.944,-1.730,3079
9.948,-2.130,3079
9.952,-2.328,3079
9.956,-2.342,3079
9.960,-2.163,3079
9.964,-1.802,3079
9.968,-1.302,3079
9.972,-0.738,3079
9.976,-0.172,3079
9.980,0.422,3118
9.984,0.978,3118
9.988,1.377,3118
9.992,1.575,3118
9.996,1.590,3118
10.000,0.958,3118
10.004,0.540,3118
10.008,-0.028,3118
10.012,-0.608,3118
10.016,-1.208,3115
10.020,-1.765,3115
10.024,-2.143,3115
10.028,-2.333,3115
10.032,-2.342,3115
10.036,-2.163,3115
10.040,-1.802,3115
10.044,-1.302,3115
10.048,-0.733,3115
10.052,-0.163,3115
10.056,0.438,3110
10.060,0.993,3110
10.064,1.397,3110
10.068,1.597,3110
10.072,1.633,3110
10.076,1.452,3110
10.080,0.500,3110
10.084,-0.018,3110
10.088,-0.570,3110
10.092,-1.165,3131
10.096,-1.715,3131
10.100,-2.123,3131
10.104,-2.312,3131
10.108,-2.340,3131
10.112,-2.163,3131
10.116,-1.810,3131
10.120,-1.292,3131
10.124,-0.755,3131
10.128,-0.182,3131
10.132,0.407,3132
10.136,0.958,3132
10.140,1.373,3132
10.144,1.573,3132
10.148,1.587,3132
10.152,1.407,3132
10.156,1.038,3132
10.160,-0.117,3132
10.164,-0.610,3132
10.168,-1.208,3123
10.172,-1.772,3123
10.176,-2.160,3123
10.180,-2.357,3123
10.184,-2.377,3123
10.188,-2.192,3123
10.192,-1.845,3123
10.196,-1.347,3123
10.200,-0.782,3123
10.204,-0.220,3123
10.208,0.378,3143
10.212,0.920,3143
10.216,1.337,3143
10.220,1.545,3143
10.224,1.580,3143
10.228,1.407,3143
10.232,1.048,3143
10.236,0.552,3143
10.240,-0.667,3143
10.244,-1.167,3137
10.248,-1.722,3137
10.252,-2.110,3137
10.256,-2.312,3137
10.260,-2.328,3137
10.264,-2.147,3137
10.268,-1.802,3137
10.272,-1.302,3137
10.276,-0.748,3137
10.280,-0.185,3137
10.284,0.410,3128
10.288,0.948,3128
10.292,1.357,3128
10.296,1.558,3128
10.300,1.583,3128
10.304,1.397,3128
10.308,1.032,3128
10.312,0.547,3128
10.316,-0.013,3128
10.320,-1.268,3140
10.324,-2.127,3140
10.328,-2.322,3140
10.332,-2.340,3140
10.336,-2.167,3140
10.340,-1.805,3140
10.344,-1.312,3140
10.348,-0.748,3140
10.352,-0.177,3140
10.356,0.420,3130
10.360,0.958,3130
10.364,1.377,3130
10.368,1.580,3130
10.372,1.597,3130
10.376,1.415,3130
10.380,1.050,3130
10.384,0.552,3130
10.388,0.013,3130
10.392,-0.578,3130
10.396,-1.173,3127
10.400,-2.172,3127
10.404,-2.310,3127
10.408,-2.335,3127
10.412,-2.160,3127
10.416,-1.802,3127
10.420,-1.298,3127
10.424,-0.723,3127
10.428,-0.138,3127
10.432,0.445,3099
10.436,0.990,3099
10.440,1.393,3099
10.444,1.587,3099
10.448,1.597,3099
10.452,1.407,3099
10.456,1.020,3099
10.460,0.522,3099
10.464,-0.048,3099
10.468,-0.618,3099
10.472,-1.218,3153
10.476,-1.775,3153
10.480,-2.357,3153
10.484,-2.348,3153
10.488,-2.163,3153
10.492,-1.808,3153
10.496,-1.308,3153
10.500,-0.733,3153
10.504,-0.145,3153
10.508,0.468,3142
10.512,0.995,3142
10.516,1.387,3142
10.520,1.595,3142
10.524,1.620,3142
10.528,1.420,3142
10.532,1.038,3142
10.536,0.550,3142
10.540,-0.022,3142
10.544,-0.593,3142
10.548,-1.202,3142
10.552,-1.765,3142
10.556,-2.150,3142
10.560,-2.348,3142
10.564,-2.180,3142
10.568,-1.820,3142
10.572,-1.325,3142
10.576,-0.748,3142
10.580,-0.172,3142
10.584,0.427,3125
10.588,0.978,3125
10.592,1.380,3125
10.596,1.580,3125
10.600,1.597,3125
10.604,1.410,3125
10.608,1.038,3125
10.612,0.547,3125
10.616,-0.018,3125
10.620,-0.583,3125
10.624,-1.190,3117
10.628,-1.742,3117
10.632,-2.138,3117
10.636,-2.325,3117
10.640,-2.103,3117
10.644,-1.802,3117
10.648,-1.298,3117
10.652,-0.738,3117
10.656,-0.163,3117
10.660,0.430,3135
10.664,0.988,3135
10.668,1.385,3135
10.672,1.590,3135
10.676,1.617,3135
10.680,1.423,3135
10.684,1.040,3135
10.688,0.547,3135
10.692,-0.018,3135
10.696,-0.595,3135
10.700,-1.202,3135
10.704,-1.748,3110
10.708,-2.145,3110
10.712,-2.335,3110
10.716,-2.348,3110
10.720,-1.722,3110
10.724,-1.300,3110
10.728,-0.735,3110
10.732,-0.163,3110
10.736,0.432,3110
10.740,0.973,3119
10.744,1.383,3119
10.748,1.587,3119
10.752,1.617,3119
10.756,1.423,3119
10.760,1.060,3119
10.764,0.568,3119
10.768,-0.007,3119
10.772,-0.573,3119
10.776,-1.180,3119
10.780,-1.728,3103
10.784,-2.130,3103
10.788,-2.328,3103
10.792,-2.342,3103
10.796,-2.165,3103
10.800,-1.218,3103
10.804,-0.670,3103
10.808,-0.138,3103
10.812,0.512,3111
10.816,1.387,3111
10.820,1.593,3111
10.824,1.617,3111
10.828,1.423,3111
10.832,1.050,3111
10.836,0.550,3111
10.840,-0.013,3111
10.844,-0.593,3111
10.848,-1.188,3111
10.852,-1.742,3100
10.856,-2.147,3100
10.860,-2.342,3100
10.864,-2.362,3100
10.868,-2.175,3100
10.872,-1.817,3100
10.876,-1.312,3100
10.880,-0.087,3100
10.884,0.432,3100
10.888,0.958,3107
10.892,1.395,3107
10.896,1.575,3107
10.900,1.587,3107
10.904,1.403,3107
10.908,1.025,3107
10.912,0.527,3107
10.916,-0.182,3107
10.920,-0.618,3107
10.924,-1.220,3107
10.928,-1.772,3115
10.932,-2.172,3115
10.936,-2.362,3115
10.940,-2.377,3115
10.944,-2.185,3115
10.948,-1.823,3115
10.952,-1.325,3115
10.956,-0.748,3115
10.960,0.532,3106
10.964,1.407,3106
10.968,1.587,3106
10.972,1.615,3106
10.976,1.413,3106
10.980,1.032,3106
10.984,0.532,3106
10.988,-0.040,3106
10.992,-0.623,3106
10.996,-1.218,3106
11.000,-1.772,3134
11.004,-2.163,3134
11.008,-2.362,3134
11.012,-2.355,3134
11.016,-2.170,3134
11.020,-1.802,3134
11.024,-1.302,3134
11.028,-0.723,3134
11.032,-0.138,3134
11.036,0.463,3134
11.040,1.465,3107
11.044,1.630,3107
11.048,1.427,3107
11.052,1.050,3107
11.056,0.540,3107
11.060,-0.022,3107
11.064,-0.608,3107
11.068,-1.212,3107
11.072,-1.765,3112
11.076,-2.150,3112
11.080,-2.345,3112
11.084,-2.350,3112
11.088,-2.167,3112
11.092,-1.792,3112
11.096,-1.292,3112
11.100,-0.708,3112
11.104,-0.130,3112
11.108,0.463,3112
11.112,1.012,3110
11.116,1.413,3110
11.120,1.617,3110
11.124,1.438,3110
11.128,1.067,3110
11.132,0.568,3110
11.136,-0.013,3110
11.140,-0.590,3110
11.144,-1.202,3110
11.148,-1.748,3138
11.152,-2.152,3138
11.156,-2.342,3138
11.160,-2.350,3138
11.164,-2.163,3138
11.168,-1.802,3138
11.172,-1.292,3138
11.176,-0.715,3138
11.180,-0.138,3138
11.184,0.453,3138
11.188,0.993,3129
11.192,1.397,3129
11.196,1.597,3129
11.200,1.375,3129
11.204,1.038,3129
11.208,0.537,3129
11.212,-0.025,3129
11.216,-0.603,3129
11.220,-1.190,3129
11.224,-1.742,3120
11.228,-2.143,3120
11.232,-2.337,3120
11.236,-2.342,3120
11.240,-2.147,3120
11.244,-1.788,3120
11.248,-1.258,3120
11.252,-0.698,3120
11.256,-0.110,3120
11.260,0.472,3120
11.264,1.020,3131
11.268,1.423,3131
11.272,1.615,3131
11.276,1.600,3131
11.280,0.958,3131
11.284,0.532,3131
11.288,-0.040,3131
11.292,-0.615,3131
11.296,-1.262,3131
11.300,-1.775,3130
11.304,-2.172,3130
11.308,-2.353,3130
11.312,-2.370,3130
11.316,-2.178,3130
11.320,-1.817,3130
11.324,-1.308,3130
11.328,-0.745,3130
11.332,-0.177,3130
11.336,0.420,3130
11.340,0.960,3135
11.344,1.377,3135
11.348,1.577,3135
11.352,1.593,3135
11.356,1.407,3135
11.360,0.440,3135
11.364,-0.052,3135
11.368,-0.608,3135
11.372,-1.192,3135
11.376,-1.738,3133
11.380,-2.143,3133
11.384,-2.328,3133
11.388,-2.340,3133
11.392,-2.147,3133
11.396,-1.788,3133
11.400,-1.268,3133
11.404,-0.710,3133
11.408,-0.133,3133
11.412,0.463,3133
11.416,1.012,3137
11.420,1.407,3137
11.424,1.613,3137
11.428,1.620,3137
11.432,1.417,3137
11.436,1.048,3137
11.440,-0.117,3137
11.444,-0.660,3137
11.448,-1.312,3137
11.452,-1.792,3113
11.456,-2.185,3113
11.460,-2.375,3113
11.464,-2.380,3113
11.468,-2.183,3113
11.472,-1.808,3113
11.476,-1.300,3113
11.480,-0.713,3113
11.484,-0.128,3113
11.488,0.463,3113
11.492,1.018,3149
11.496,1.417,3149
11.500,1.620,3149
11.504,1.623,3149
11.508,1.420,3149
11.512,1.035,3149
11.516,0.532,3149
11.520,-0.748,3149
11.524,-1.355,3149
11.528,-1.788,3144
11.532,-2.160,3144
11.536,-2.322,3144
11.540,-2.303,3144
11.544,-2.107,3144
11.548,-1.748,3144
11.552,-1.238,3144
11.556,-0.688,3144
11.560,-0.113,3144
11.564,0.472,3144
11.568,1.018,3113
11.572,1.413,3113
11.576,1.593,3113
11.580,1.597,3113
11.584,1.397,3113
11.588,1.022,3113
11.592,0.525,3113
11.596,-0.040,3113
11.600,-1.308,3113
11.604,-1.742,3115
11.608,-2.143,3115
11.612,-2.322,3115
11.616,-2.328,3115
11.620,-2.138,3115
11.624,-1.768,3115
11.628,-1.258,3115
11.632,-0.708,3115
11.636,-0.138,3115
11.640,0.450,3115
11.644,0.990,3138
11.648,1.385,3138
11.652,1.573,3138
11.656,1.580,3138
11.660,1.383,3138
11.664,0.998,3138
11.668,0.458,3138
11.672,-0.068,3138
11.676,-0.647,3138
11.680,-1.853,3104
11.684,-2.353,3104
11.688,-2.350,3104
11.692,-2.160,3104
11.696,-1.785,3104
11.700,-1.252,3104
11.704,-0.703,3104
11.708,-0.115,3104
11.712,0.475,3104
11.716,1.028,3104
11.720,1.417,3126
11.724,1.623,3126
11.728,1.630,3126
11.732,1.423,3126
11.736,0.917,3126
11.740,0.527,3126
11.744,-0.043,3126
11.748,-0.623,3126
11.752,-1.220,3126
11.756,-1.768,3126
11.760,-2.362,3105
11.764,-2.132,3105
11.768,-1.772,3105
11.772,-1.258,3105
11.776,-0.708,3105
11.780,-0.122,3105
11.784,0.468,3105
11.788,1.008,3105
11.792,1.407,3079
11.796,1.597,3079
11.800,1.617,3079
11.804,1.420,3079
11.808,1.038,3079
11.812,0.535,3079
11.816,-0.030,3079
11.820,-0.620,3079
11.824,-1.218,3079
11.828,-1.762,3079
11.832,-2.145,3111
11.836,-2.340,3111
11.840,-2.098,3111
11.844,-1.742,3111
11.848,-1.255,3111
11.852,-0.698,3111
11.856,-0.122,3111
11.860,0.470,3111
11.864,1.008,3111
11.868,1.397,3110
11.872,1.593,3110
11.876,1.613,3110
11.880,1.407,3110
11.884,1.020,3110
11.888,0.517,3110
11.892,-0.045,3110
11.896,-0.623,3110
11.900,-1.212,3110
11.904,-1.742,3110
11.908,-2.132,3096
11.912,-2.315,3096
11.916,-2.328,3096
11.920,-1.688,3096
11.924,-1.250,3096
11.928,-0.700,3096
11.932,-0.133,3096
11.936,0.453,3096
11.940,0.988,3096
11.944,1.377,3115
11.948,1.560,3115
11.952,1.573,3115
11.956,1.357,3115
11.960,0.980,3115
11.964,0.477,3115
11.968,-0.083,3115
11.972,-0.660,3115
11.976,-1.238,3115
11.980,-1.778,3115
11.984,-2.147,3106
11.988,-2.325,3106
11.992,-2.325,3106
11.996,-2.120,3106
12.000,-1.147,3106
12.004,-0.660,3106
12.008,-0.098,3106
12.012,0.477,3106
12.016,1.020,3106
12.020,1.423,3115
12.024,1.620,3115
12.028,1.625,3115
12.032,1.415,3115
12.036,1.032,3115
12.040,0.537,3115
12.044,-0.033,3115
12.048,-0.660,3115
12.052,-1.215,3115
12.056,-1.765,3115
12.060,-2.147,3123
12.064,-2.340,3123
12.068,-2.348,3123
12.072,-1.975,3123
12.076,-1.302,3123
12.080,-0.072,3123
12.084,0.438,3123
12.088,0.953,3123
12.092,1.357,3125
12.096,1.558,3125
12.100,1.570,3125
12.104,1.377,3125
12.108,0.990,3125
12.112,0.492,3125
12.116,-0.072,3125
12.120,-0.657,3125
12.124,-1.232,3125
12.128,-1.778,3125
12.132,-2.152,3117
12.136,-2.342,3117
12.140,-2.342,3117
12.144,-2.145,3117
12.148,-1.778,3117
12.152,-1.268,3117
12.156,-0.708,3117
12.160,0.552,3117
12.164,0.998,3117
12.168,1.397,3126
12.172,1.597,3126
12.176,1.617,3126
12.180,1.410,3126
12.184,1.022,3126
12.188,0.527,3126
12.192,-0.028,3126
12.196,-0.608,3126
12.200,-1.188,3126
12.204,-1.728,3126
12.208,-2.120,3138
12.212,-2.303,3138
12.216,-2.312,3138
12.220,-2.127,3138
12.224,-1.765,3138
12.228,-1.252,3138
12.232,-0.700,3138
12.236,-0.130,3138
12.240,1.062,3138
12.244,1.417,3136
12.248,1.593,3136
12.252,1.595,3136
12.256,1.397,3136
12.260,1.022,3136
12.264,0.517,3136
12.268,-0.048,3136
12.272,-0.620,3136
12.276,-1.212,3136
12.280,-1.765,3136
12.284,-2.140,3145
12.288,-2.333,3145
12.292,-2.337,3145
12.296,-2.138,3145
12.300,-1.770,3145
12.304,-1.248,3145
12.308,-0.703,3145
12.312,-0.128,3145
12.316,0.463,3145
12.320,1.417,3147
12.324,1.577,3147
12.328,1.380,3147
12.332,1.012,3147
12.336,0.527,3147
12.340,-0.028,3147
12.344,-0.603,3147
12.348,-1.177,3147
12.352,-1.708,3147
12.356,-2.098,3131
12.360,-2.270,3131
12.364,-2.280,3131
12.368,-2.092,3131
12.372,-1.712,3131
12.376,-1.228,3131
12.380,-0.685,3131
12.384,-0.122,3131
12.388,0.453,3131
12.392,0.978,3131
12.396,1.357,3138
12.400,1.525,3138
12.404,1.345,3138
12.408,0.975,3138
12.412,0.477,3138
12.416,-0.062,3138
12.420,-0.627,3138
12.424,-1.202,3138
12.428,-1.728,3138
12.432,-2.107,3125
12.436,-2.283,3125
12.440,-2.268,3125
12.444,-2.083,3125
12.448,-1.705,3125
12.452,-1.210,3125
12.456,-0.657,3125
12.460,-0.110,3125
12.464,0.460,3125
12.468,0.988,3125
12.472,1.373,3143
12.476,1.550,3143
12.480,1.310,3143
12.484,0.988,3143
12.488,0.480,3143
12.492,-0.060,3143
12.496,-0.640,3143
12.500,-1.208,3143
12.504,-1.728,3143
12.508,-2.105,3141
12.512,-2.288,3141
12.516,-2.283,3141
12.520,-2.087,3141
12.524,-1.712,3141
12.528,-1.220,3141
12.532,-0.688,3141
12.536,-0.122,3141
12.540,0.460,3141
12.544,0.993,3141
12.548,1.387,3143
12.552,1.575,3143
12.556,1.580,3143
12.560,0.932,3143
12.564,0.497,3143
12.568,-0.043,3143
12.572,-0.608,3143
12.576,-1.183,3143
12.580,-1.712,3143
12.584,-2.098,3140
12.588,-2.303,3140
12.592,-2.303,3140
12.596,-2.112,3140
12.600,-1.748,3140
12.604,-1.252,3140
12.608,-0.713,3140
12.612,-0.140,3140
12.616,0.438,3140
12.620,0.978,3140
12.624,1.357,3116
12.628,1.542,3116
12.632,1.548,3116
12.636,1.353,3116
12.640,0.383,3116
12.644,-0.070,3116
12.648,-0.642,3116
12.652,-1.205,3116
12.656,-1.732,3116
12.660,-2.105,3125
12.664,-2.297,3125
12.668,-2.300,3125
12.672,-2.100,3125
12.676,-1.730,3125
12.680,-1.238,3125
12.684,-0.688,3125
12.688,-0.122,3125
12.692,0.458,3125
12.696,0.993,3125
12.700,1.375,3126
12.704,1.548,3126
12.708,1.555,3126
12.712,1.357,3126
12.716,0.990,3126
12.720,-0.142,3126
12.724,-0.620,3126
12.728,-1.202,3126
12.732,-1.728,3126
12.736,-2.112,3126
12.740,-2.303,3127
12.744,-2.305,3127
12.748,-2.123,3127
12.752,-1.748,3127
12.756,-1.252,3127
12.760,-0.713,3127
12.764,-0.142,3127
12.768,0.427,3127
12.772,0.955,3127
12.776,1.343,3127
12.780,1.530,3118
12.784,1.538,3118
12.788,1.345,3118
12.792,0.978,3118
12.796,0.477,3118
12.800,-0.723,3118
12.804,-1.192,3118
12.808,-1.712,3118
12.812,-2.098,3118
12.816,-2.280,3126
12.820,-2.268,3126
12.824,-2.087,3126
12.828,-1.712,3126
12.832,-1.218,3126
12.836,-0.685,3126
12.840,-0.117,3126
12.844,0.468,3126
12.848,0.983,3126
12.852,1.367,3126
12.856,1.558,3117
12.860,1.567,3117
12.864,1.370,3117
12.868,0.993,3117
12.872,0.502,3117
12.876,-0.048,3117
12.880,-1.305,3117
12.884,-1.732,3117
12.888,-2.120,3117
12.892,-2.288,3091
12.896,-2.297,3091
12.900,-2.103,3091
12.904,-1.732,3091
12.908,-1.228,3091
12.912,-0.682,3091
12.916,-0.110,3091
12.920,0.463,3091
12.924,0.983,3091
12.928,1.353,3091
12.932,1.538,3110
12.936,1.540,3110
12.940,1.347,3110
12.944,0.975,3110
12.948,0.472,3110
12.952,-0.072,3110
12.956,-0.647,3110
12.960,-1.810,3110
12.964,-2.105,3110
12.968,-2.283,3100
12.972,-2.280,3100
12.976,-2.085,3100
12.980,-1.715,3100
12.984,-1.220,3100
12.988,-0.688,3100
12.992,-0.130,3100
12.996,0.453,3100
13.000,0.958,3100
13.004,1.333,3100
13.008,1.512,3101
13.012,1.512,3101
13.016,1.312,3101
13.020,0.932,3101
13.024,0.438,3101
13.028,-0.102,3101
13.032,-0.667,3101
13.036,-1.235,3101
13.040,-2.160,3101
13.044,-2.292,3133
13.048,-2.288,3133
13.052,-2.095,3133
13.056,-1.728,3133
13.060,-1.232,3133
13.064,-0.698,3133
13.068,-0.138,3133
13.072,0.432,3133
13.076,0.943,3133
13.080,1.337,3133
13.084,1.512,3124
13.088,1.508,3124
13.092,1.302,3124
13.096,0.917,3124
13.100,0.417,3124
13.104,-0.133,3124
13.108,-0.700,3124
13.112,-1.265,3124
13.116,-1.800,3124
13.120,-2.340,3117
13.124,-2.100,3117
13.128,-1.738,3117
13.132,-1.238,3117
13.136,-0.703,3117
13.140,-0.133,3117
13.144,0.432,3117
13.148,0.948,3117
13.152,1.347,3117
13.156,1.538,3104
13.160,1.540,3104
13.164,1.347,3104
13.168,0.958,3104
13.172,0.468,3104
13.176,-0.072,3104
13.180,-0.647,3104
13.184,-1.222,3104
13.188,-1.742,3104
13.192,-2.125,3104
13.196,-2.305,3129
13.200,-2.030,3129
13.204,-1.607,3129
13.208,-1.200,3129
13.212,-0.682,3129
13.216,-0.113,3129
13.220,0.458,3129
13.224,0.983,3129
13.228,1.367,3129
13.232,1.548,3124
13.236,1.552,3124
13.240,1.355,3124
13.244,0.988,3124
13.248,0.492,3124
13.252,-0.060,3124
13.256,-0.627,3124
13.260,-1.215,3124
13.264,-1.732,3124
13.268,-2.107,3124
13.272,-2.288,3137
13.276,-2.288,3137
13.280,-1.663,3137
13.284,-1.238,3137
13.288,-0.703,3137
13.292,-0.138,3137
13.296,0.438,3137
13.300,0.958,3137
13.304,1.340,3137
13.308,1.532,3133
13.312,1.538,3133
13.316,1.335,3133
13.320,0.948,3133
13.324,0.453,3133
13.328,-0.092,3133
13.332,-0.662,3133
13.336,-1.230,3133
13.340,-1.762,3133
13.344,-2.130,3133
13.348,-2.297,3130
13.352,-2.288,3130
13.356,-2.087,3130
13.360,-1.123,3130
13.364,-0.680,3130
13.368,-0.107,3130
13.372,0.458,3130
13.376,0.973,3130
13.380,1.347,3130
13.384,1.530,3126
13.388,1.528,3126
13.392,1.330,3126
13.396,0.953,3126
13.400,0.455,3126
13.404,-0.090,3126
13.408,-0.657,3126
13.412,-1.222,3126
13.416,-1.738,3126
13.420,-2.103,3126
13.424,-2.280,3109
13.428,-2.272,3109
13.432,-2.067,3109
13.436,-1.702,3109
13.440,-0.580,3109
13.444,0.507,3109
13.448,0.988,3109
13.452,1.360,3109
13.456,1.548,3111
13.460,1.540,3111
13.464,1.337,3111
13.468,0.978,3111
13.472,0.472,3111
13.476,-0.062,3111
13.480,-0.642,3111
13.484,-1.202,3111
13.488,-1.710,3111
13.492,-2.087,3111
13.496,-2.257,3118
13.500,-2.260,3118
13.504,-2.058,3118
13.508,-1.698,3118
13.512,-1.208,3118
13.516,-0.685,3118
13.520,0.530,3118
13.524,0.948,3118
13.528,1.337,3118
13.532,1.512,3126
13.536,1.512,3126
13.540,1.327,3126
13.544,0.948,3126
13.548,0.468,3126
13.552,-0.062,3126
13.556,-0.608,3126
13.560,-1.173,3126
13.564,-1.688,3126
13.568,-2.045,3126
13.572,-2.217,3129
13.576,-2.223,3129
13.580,-2.027,3129
13.584,-1.683,3129
13.588,-1.190,3129
13.592,-0.662,3129
13.596,-0.087,3129
13.600,1.012,3129
13.604,1.312,3129
13.608,1.492,3123
13.612,1.492,3123
13.616,1.278,3123
13.620,0.932,3123
13.624,0.448,3123
13.628,-0.068,3123
13.632,-0.613,3123
13.636,-1.175,3123
13.640,-1.688,3123
13.644,-2.045,3123
13.648,-2.215,3116
13.652,-2.223,3116
13.656,-2.027,3116
13.660,-1.673,3116
13.664,-1.183,3116
13.668,-0.662,3116
13.672,-0.115,3116
13.676,0.432,3116
13.680,1.353,3116
13.684,1.490,3103
13.688,1.490,3103
13.692,1.300,3103
13.696,0.927,3103
13.700,0.458,3103
13.704,-0.070,3103
13.708,-0.620,3103
13.712,-1.183,3103
13.716,-1.688,3103
13.720,-2.050,3103
13.724,-2.220,3138
13.728,-2.217,3138
13.732,-2.018,3138
13.736,-1.655,3138
13.740,-1.173,3138
13.744,-0.652,3138
13.748,-0.107,3138
13.752,0.453,3138
13.756,0.948,3138
13.760,1.510,3070
13.764,1.258,3070
13.768,0.932,3070
13.772,0.453,3070
13.776,-0.072,3070
13.780,-0.627,3070
13.784,-1.188,3070
13.788,-1.702,3070
13.792,-2.055,3070
13.796,-2.243,3070
13.800,-2.248,3111
13.804,-2.042,3111
13.808,-1.692,3111
13.812,-1.205,3111
13.816,-0.682,3111
13.820,-0.135,3111
13.824,0.422,3111
13.828,0.932,3111
13.832,1.312,3111
13.836,1.490,3111
13.840,1.248,3108
13.844,0.412,3108
13.848,-0.072,3108
13.852,-0.625,3108
13.856,-1.250,3108
13.860,-1.698,3108
13.864,-2.053,3108
13.868,-2.228,3108
13.872,-2.228,3118
13.876,-2.033,3118
13.880,-1.683,3118
13.884,-1.192,3118
13.888,-0.662,3118
13.892,-0.113,3118
13.896,0.448,3118
13.900,0.943,3118
13.904,1.327,3118
13.908,1.502,3118
13.912,1.502,3120
13.916,1.302,3120
13.920,0.367,3120
13.924,-0.087,3120
13.928,-0.642,3120
13.932,-1.202,3120
13.936,-1.708,3120
13.940,-2.062,3120
13.944,-2.248,3120
13.948,-2.248,3117
13.952,-2.033,3117
13.956,-1.683,3117
13.960,-1.183,3117
13.964,-0.667,3117
13.968,-0.122,3117
13.972,0.453,3117
13.976,0.990,3117
13.980,1.337,3117
13.984,1.508,3117
13.988,1.508,3104
13.992,1.302,3104
13.996,0.932,3104
14.000,-0.163,3104
14.004,-0.655,3104
14.008,-1.180,3104
14.012,-1.685,3104
14.016,-2.042,3104
14.020,-2.212,3104
14.024,-2.217,3107
14.028,-2.018,3107
14.032,-1.673,3107
14.036,-1.185,3107
14.040,-0.672,3107
14.044,-0.128,3107
14.048,0.427,3107
14.052,0.927,3107
14.056,1.300,3107
14.060,1.478,3107
14.064,1.488,3111
14.068,1.268,3111
14.072,0.912,3111
14.076,0.435,3111
14.080,-0.733,3111
14.084,-1.202,3111
14.088,-1.695,3111
14.092,-2.050,3111
14.096,-2.223,3111
14.100,-2.223,3112
14.104,-2.033,3112
14.108,-1.690,3112
14.112,-1.212,3112
14.116,-0.700,3112
14.120,-0.145,3112
14.124,0.407,3112
14.128,0.912,3112
14.132,1.292,3112
14.136,1.462,3112
14.140,1.468,3114
14.144,1.258,3114
14.148,0.902,3114
14.152,0.420,3114
14.156,-0.110,3114
14.160,-1.340,3114
14.164,-1.748,3114
14.168,-2.127,3114
14.172,-2.292,3114
14.176,-2.288,3126
14.180,-2.083,3126
14.184,-1.712,3126
14.188,-1.220,3126
14.192,-0.698,3126
14.196,-0.147,3126
14.200,0.420,3126
14.204,0.917,3126
14.208,1.295,3126
14.212,1.470,3126
14.216,1.475,3122
14.220,1.262,3122
14.224,0.915,3122
14.228,0.440,3122
14.232,-0.077,3122
14.236,-0.620,3122
14.240,-1.772,3122
14.244,-2.053,3122
14.248,-2.220,3122
14.252,-2.220,3135
14.256,-2.025,3135
14.260,-1.667,3135
14.264,-1.183,3135
14.268,-0.672,3135
14.272,-0.115,3135
14.276,0.438,3135
14.280,0.943,3135
14.284,1.312,3135
14.288,1.498,3135
14.292,1.498,3097
14.296,1.298,3097
14.300,0.932,3097
14.304,0.450,3097
14.308,-0.083,3097
14.312,-0.640,3097
14.316,-1.200,3097
14.320,-2.107,3097
14.324,-2.252,3097
14.328,-2.250,3145
14.332,-2.042,3145
14.336,-1.690,3145
14.340,-1.212,3145
14.344,-0.688,3145
14.348,-0.142,3145
14.352,0.417,3145
14.356,0.927,3145
14.360,1.308,3145
14.364,1.488,3145
14.368,1.485,3135
14.372,1.272,3135
14.376,0.927,3135
14.380,0.458,3135
14.384,-0.072,3135
14.388,-0.627,3135
14.392,-1.210,3135
14.396,-1.708,3135
14.400,-2.288,3135
14.404,-2.257,3127
14.408,-2.050,3127
14.412,-1.695,3127
14.416,-1.208,3127
14.420,-0.670,3127
14.424,-0.102,3127
14.428,0.458,3127
14.432,0.975,3127
14.436,1.340,3127
14.440,1.508,3127
14.444,1.502,3123
14.448,1.272,3123
14.452,0.910,3123
14.456,0.425,3123
14.460,-0.107,3123
14.464,-0.662,3123
14.468,-1.222,3123
14.472,-1.728,3123
14.476,-2.095,3123
14.480,-2.243,3137
14.484,-1.692,3137
14.488,-1.208,3137
14.492,-0.682,3137
14.496,-0.133,3137
14.500,0.430,3137
14.504,0.940,3137
14.508,1.317,3137
14.512,1.498,3137
14.516,1.492,3136
14.520,1.270,3136
14.524,0.912,3136
14.528,0.435,3136
14.532,-0.095,3136
14.536,-0.652,3136
14.540,-1.218,3136
14.544,-1.730,3136
14.548,-2.087,3136
14.552,-2.243,3136
14.556,-2.230,3142
14.560,-1.617,3142
14.564,-1.083,3142
14.568,-0.662,3142
14.572,-0.117,3142
14.576,0.432,3142
14.580,0.988,3142
14.584,1.302,3142
14.588,1.482,3142
14.592,1.470,3126
14.596,1.248,3126
14.600,0.887,3126
14.604,0.398,3126
14.608,-0.188,3126
14.612,-0.723,3126
14.616,-1.260,3126
14.620,-1.765,3126
14.624,-2.110,3126
14.628,-2.252,3126
14.632,-2.245,3125
14.636,-2.030,3125
14.640,-0.973,3125
14.644,-0.055,3125
14.648,0.477,3125
14.652,0.983,3125
14.656,1.373,3125
14.660,1.538,3125
14.664,1.532,3123
14.668,1.302,3123
14.672,0.945,3123
14.676,0.463,3123
14.680,-0.083,3123
14.684,-0.672,3123
14.688,-1.212,3123
14.692,-1.732,3123
14.696,-2.058,3123
14.700,-2.225,3123
14.704,-2.220,3126
14.708,-2.033,3126
14.712,-1.673,3126
14.716,-1.177,3126
14.720,-0.013,3126
14.724,0.502,3126
14.728,0.998,3126
14.732,1.377,3126
14.736,1.558,3126
14.740,1.558,3155
14.744,1.337,3155
14.748,0.940,3155
14.752,0.470,3155
14.756,-0.062,3155
14.760,-0.618,3155
14.764,-1.190,3155
14.768,-1.708,3155
14.772,-2.083,3155
14.776,-2.248,3155
14.780,-2.243,3123
14.784,-2.033,3123
14.788,-1.673,3123
14.792,-1.185,3123
14.796,-0.652,3123
14.800,0.555,3123
14.804,0.978,3123
14.808,1.343,3123
14.812,1.528,3123
14.816,1.518,3123
14.820,1.323,3120
14.824,0.932,3120
14.828,0.458,3120
14.832,-0.072,3120
14.836,-0.647,3120
14.840,-1.210,3120
14.844,-1.730,3120
14.848,-2.103,3120
14.852,-2.283,3120
14.856,-2.288,3120
14.860,-2.083,3109
14.864,-1.692,3109
14.868,-1.205,3109
14.872,-0.667,3109
14.876,-0.105,3109
14.880,1.028,3109
14.884,1.327,3109
14.888,1.508,3109
14.892,1.500,3109
14.896,1.300,3126
14.900,0.912,3126
14.904,0.448,3126
14.908,-0.085,3126
14.912,-0.623,3126
14.916,-1.177,3126
14.920,-1.692,3126
14.924,-2.050,3126
14.928,-2.220,3126
14.932,-2.223,3126
14.936,-2.042,3108
14.940,-1.677,3108
14.944,-1.208,3108
14.948,-0.682,3108
14.952,-0.138,3108
14.956,0.427,3108
14.960,1.353,3108
14.964,1.492,3108
14.968,1.490,3108
14.972,1.298,3108
14.976,0.907,3108
14.980,0.427,3108
14.984,-0.102,3108
14.988,-0.665,3108
14.992,-1.228,3108
14.996,-1.742,3108
15.000,-2.112,3108
15.004,-2.288,3108
15.008,-2.283,3108
15.012,-2.083,3111
15.016,-1.700,3111
15.020,-1.215,3111
15.024,-0.688,3111
15.028,-0.135,3111
15.032,0.430,3111
15.036,0.935,3111
15.040,1.518,3111
15.044,1.502,3111
15.048,1.310,3082
15.052,0.938,3082
15.056,0.453,3082
15.060,-0.070,3082
15.064,-0.627,3082
15.068,-1.188,3082
15.072,-1.702,3082
15.076,-2.062,3082
15.080,-2.250,3082
15.084,-2.252,3082
15.088,-2.047,3119
15.092,-1.692,3119
15.096,-1.208,3119
15.100,-0.672,3119
15.104,-0.107,3119
15.108,0.453,3119
15.112,0.958,3119
15.116,1.337,3119
15.120,1.460,3119
15.124,1.262,3121
15.128,0.897,3121
15.132,0.425,3121
15.136,-0.107,3121
15.140,-0.698,3121
15.144,-1.222,3121
15.148,-1.732,3121
15.152,-2.092,3121
15.156,-2.260,3121
15.160,-2.252,3121
15.164,-2.045,3115
15.168,-1.663,3115
15.172,-1.192,3115
15.176,-0.672,3115
15.180,-0.122,3115
15.184,0.432,3115
15.188,0.938,3115
15.192,1.302,3115
15.196,1.468,3115
15.200,1.183,3110
15.204,0.372,3110
15.208,-0.130,3110
15.212,-0.693,3110
15.216,-1.238,3110
15.220,-1.742,3110
15.224,-2.100,3110
15.228,-2.260,3110
15.232,-2.257,3110
15.236,-2.053,3117
15.240,-1.683,3117
15.244,-1.192,3117
15.248,-0.662,3117
15.252,-0.117,3117
15.256,0.438,3117
15.260,0.945,3117
15.264,1.310,3117
15.268,1.470,3117
15.272,1.470,3117
15.276,1.258,3136
15.280,0.302,3136
15.284,-0.745,3136
15.288,-1.298,3136
15.292,-1.857,3136
15.296,-2.127,3136
15.300,-2.288,3136
15.304,-2.283,3136
15.308,-2.083,3131
15.312,-1.698,3131
15.316,-1.210,3131
15.320,-0.672,3131
15.324,-0.113,3131
15.328,0.453,3131
15.332,0.958,3131
15.336,1.333,3131
15.340,1.500,3131
15.344,1.498,3131
15.348,1.298,3140
15.352,0.902,3140
15.356,0.422,3140
15.360,-0.772,3140
15.364,-1.248,3140
15.368,-1.768,3140
15.372,-2.123,3140
15.376,-2.295,3140
15.380,-2.292,3140
15.384,-2.087,3140
15.388,-1.710,3140
15.392,-1.228,3140
15.396,-0.698,3140
15.400,-0.138,3140
15.404,0.420,3140
15.408,0.938,3140
15.412,1.312,3140
15.416,1.500,3140
15.420,1.498,3140
15.424,1.300,3124
15.428,0.912,3124
15.432,0.438,3124
15.436,-0.090,3124
15.440,-1.295,3124
15.444,-1.700,3124
15.448,-2.058,3124
15.452,-2.228,3124
15.456,-2.223,3124
15.460,-2.018,3127
15.464,-1.655,3127
15.468,-1.173,3127
15.472,-0.652,3127
15.476,-0.098,3127
15.480,0.472,3127
15.484,0.983,3127
15.488,1.343,3127
15.492,1.518,3127
15.496,1.512,3127
15.500,1.312,3113
15.504,0.830,3113
15.508,0.427,3113
15.512,-0.105,3113
15.516,-0.672,3113
15.520,-1.823,3113
15.524,-2.112,3113
15.528,-2.265,3113
15.532,-2.252,3113
15.536,-2.035,3145
15.540,-1.657,3145
15.544,-1.167,3145
15.548,-0.655,3145
15.552,-0.102,3145
15.556,0.460,3145
15.560,0.978,3145
15.564,1.337,3145
15.568,1.508,3145
15.572,1.508,3145
15.576,1.308,3127
15.580,0.907,3127
15.584,0.427,3127
15.588,-0.102,3127
15.592,-0.667,3127
15.596,-1.235,3127
15.600,-2.163,3127
15.604,-2.292,3127
15.608,-2.283,3127
15.612,-2.085,3125
15.616,-1.700,3125
15.620,-1.228,3125
15.624,-0.698,3125
15.628,-0.130,3125
15.632,0.438,3125
15.636,0.948,3125
15.640,1.333,3125
15.644,1.498,3125
15.648,1.498,3125
15.652,1.298,3124
15.656,0.907,3124
15.660,0.435,3124
15.664,-0.095,3124
15.668,-0.657,3124
15.672,-1.218,3124
15.676,-1.738,3124
15.680,-2.272,3124
15.684,-2.255,3124
15.688,-2.047,3113
15.692,-1.677,3113
15.696,-1.192,3113
15.700,-0.662,3113
15.704,-0.107,3113
15.708,0.458,3113
15.712,0.958,3113
15.716,1.337,3113
15.720,1.505,3113
15.724,1.498,3113
15.728,1.278,3115
15.732,0.902,3115
15.736,0.422,3115
15.740,-0.107,3115
15.744,-0.672,3115
15.748,-1.232,3115
15.752,-1.742,3115
15.756,-2.103,3115
15.760,-2.217,3115
15.764,-2.033,3124
15.768,-1.670,3124
15.772,-1.185,3124
15.776,-0.660,3124
15.780,-0.090,3124
15.784,0.455,3124
15.788,0.988,3124
15.792,1.353,3124
15.796,1.530,3124
15.800,1.508,3124
15.804,1.258,3134
15.808,0.343,3134
15.812,-0.138,3134
15.816,-0.698,3134
15.820,-1.252,3134
15.824,-1.772,3134
15.828,-2.112,3134
15.832,-2.288,3134
15.836,-2.272,3134
15.840,-1.650,3125
15.844,-0.690,3125
15.848,-0.142,3125
15.852,0.420,3125
15.856,0.927,3125
15.860,1.302,3125
15.864,1.472,3125
15.868,1.470,3125
15.872,1.250,3125
15.876,0.892,3111
15.880,0.407,3111
15.884,-0.110,3111
15.888,-0.660,3111
15.892,-1.208,3111
15.896,-1.730,3111
15.900,-2.092,3111
15.904,-2.260,3111
15.908,-2.248,3111
15.912,-2.050,3111
15.916,-1.685,3117
15.920,-0.578,3117
15.924,-0.102,3117
15.928,0.470,3117
15.932,0.948,3117
15.936,1.327,3117
15.940,1.500,3117
15.944,1.495,3117
15.948,1.308,3117
15.952,0.917,3123
15.956,0.427,3123
15.960,-0.098,3123
15.964,-0.652,3123
15.968,-1.222,3123
15.972,-1.732,3123
15.976,-2.087,3123
15.980,-2.257,3123
15.984,-2.252,3123
15.988,-2.038,3123
15.992,-1.688,3104
15.996,-1.188,3104
16.000,-0.033,3104
16.004,0.430,3104
16.008,0.932,3104
16.012,1.300,3104
16.016,1.462,3104
16.020,1.465,3104
16.024,1.248,3104
16.028,0.887,3109
16.032,0.393,3109
16.036,-0.115,3109
16.040,-0.670,3109
16.044,-1.225,3109
16.048,-1.732,3109
16.052,-2.087,3109
16.056,-2.248,3109
16.060,-2.243,3109
16.064,-2.027,3109
16.068,-1.657,3111
16.072,-1.167,3111
16.076,-0.652,3111
16.080,0.542,3111
16.084,0.978,3111
16.088,1.327,3111
16.092,1.488,3111
16.096,1.470,3111
16.100,1.252,3111
16.104,0.885,3112
16.108,0.383,3112
16.112,-0.133,3112
16.116,-0.685,3112
16.120,-1.232,3112
16.124,-1.740,3112
16.128,-2.098,3112
16.132,-2.263,3112
16.136,-2.257,3112
16.140,-2.035,3112
16.144,-1.688,3110
16.148,-1.188,3110
16.152,-0.682,3110
16.156,-0.128,3110
16.160,1.008,3110
16.164,1.323,3110
16.168,1.490,3110
16.172,1.472,3110
16.176,1.262,3110
16.180,0.895,3116
16.184,0.410,3116
16.188,-0.117,3116
16.192,-0.670,3116
16.196,-1.222,3116
16.200,-1.732,3116
16.204,-2.092,3116
16.208,-2.255,3116
16.212,-2.245,3116
16.216,-2.035,3116
16.220,-1.670,3130
16.224,-1.183,3130
16.228,-0.662,3130
16.232,-0.122,3130
16.236,0.438,3130
16.240,1.347,3130
16.244,1.472,3130
16.248,1.462,3130
16.252,1.248,3130
16.256,0.877,3124
16.260,0.390,3124
16.264,-0.128,3124
16.268,-0.682,3124
16.272,-1.235,3124
16.276,-1.740,3124
16.280,-2.095,3124
16.284,-2.263,3124
16.288,-2.250,3124
16.292,-2.045,3124
16.296,-1.660,3117
16.300,-1.175,3117
16.304,-0.660,3117
16.308,-0.110,3117
16.312,0.453,3117
16.316,0.958,3117
16.320,1.502,3117
16.324,1.492,3117
16.328,1.272,3117
16.332,0.907,3140
16.336,0.422,3140
16.340,-0.100,3140
16.344,-0.655,3140
16.348,-1.212,3140
16.352,-1.708,3140
16.356,-2.067,3140
16.360,-2.223,3140
16.364,-2.212,3140
16.368,-2.005,3140
16.372,-1.643,3134
16.376,-1.163,3134
16.380,-0.627,3134
16.384,-0.095,3134
16.388,0.458,3134
16.392,0.958,3134
16.396,1.325,3134
16.400,1.452,3134
16.404,1.252,3134
16.408,0.887,3158
16.412,0.388,3158
16.416,-0.133,3158
16.420,-0.698,3158
16.424,-1.248,3158
16.428,-1.738,3158
16.432,-2.092,3158
16.436,-2.252,3158
16.440,-2.248,3158
16.444,-2.033,3158
16.448,-1.673,3132
16.452,-1.177,3132
16.456,-0.665,3132
16.460,-0.110,3132
16.464,0.450,3132
16.468,0.958,3132
16.472,1.323,3132
16.476,1.492,3132
16.480,1.215,3132
16.484,0.892,3136
16.488,0.390,3136
16.492,-0.130,3136
16.496,-0.685,3136
16.500,-1.232,3136
16.504,-1.730,3136
16.508,-2.087,3136
16.512,-2.245,3136
16.516,-2.225,3136
16.520,-2.020,3136
16.524,-1.653,3136
16.528,-1.153,3136
16.532,-0.623,3136
16.536,-0.087,3136
16.540,0.480,3136
16.544,0.993,3136
16.548,1.353,3136
16.552,1.510,3136
16.556,1.498,3136
16.560,0.838,3135
16.564,-0.125,3135
16.568,-0.682,3135
16.572,-1.238,3135
16.576,-1.745,3135
16.580,-2.105,3135
16.584,-2.270,3135
16.588,-2.252,3135
16.592,-2.033,3135
16.596,-1.657,3129
16.600,-1.165,3129
16.604,-0.650,3129
16.608,-0.095,3129
16.612,0.463,3129
16.616,0.973,3129
16.620,1.333,3129
16.624,1.488,3129
16.628,1.475,3129
16.632,1.262,3129
16.636,0.897,3123
16.640,-0.242,3123
16.644,-0.782,3123
16.648,-1.262,3123
16.652,-1.748,3123
16.656,-2.103,3123
16.660,-2.265,3123
16.664,-2.257,3123
16.668,-2.047,3123
16.672,-1.683,3130
16.676,-1.180,3130
16.680,-0.620,3130
16.684,-0.092,3130
16.688,0.460,3130
16.692,0.958,3130
16.696,1.327,3130
16.700,1.492,3130
16.704,1.465,3130
16.708,1.250,3130
16.712,0.895,3120
16.716,0.393,3120
16.720,-0.777,3120
16.724,-1.238,3120
16.728,-1.762,3120
16.732,-2.100,3120
16.736,-2.263,3120
16.740,-2.252,3120
16.744,-2.033,3120
16.748,-1.667,3126
16.752,-1.183,3126
16.756,-0.662,3126
16.760,-0.113,3126
16.764,0.453,3126
16.768,0.948,3126
16.772,1.308,3126
16.776,1.488,3126
16.780,1.472,3126
16.784,1.270,3126
16.788,0.902,3126
16.792,0.425,3116
16.796,-0.105,3116
16.800,-1.312,3116
16.804,-1.712,3116
16.808,-2.067,3116
16.812,-2.228,3116
16.816,-2.223,3116
16.820,-2.013,3116
16.824,-1.650,3116
16.828,-1.173,3110
16.832,-0.623,3110
16.836,-0.087,3110
16.840,0.468,3110
16.844,0.978,3110
16.848,1.340,3110
16.852,1.508,3110
16.856,1.502,3110
16.860,1.308,3110
16.864,0.912,3110
16.868,0.432,3104
16.872,-0.110,3104
16.876,-0.657,3104
16.880,-1.802,3104
16.884,-2.092,3104
16.888,-2.252,3104
16.892,-2.228,3104
16.896,-2.020,3104
16.900,-1.657,3104
16.904,-1.173,3119
16.908,-0.623,3119
16.912,-0.098,3119
16.916,0.453,3119
16.920,0.950,3119
16.924,1.323,3119
16.928,1.488,3119
16.932,1.478,3119
16.936,1.262,3119
16.940,0.892,3119
16.944,0.407,3124
16.948,-0.130,3124
16.952,-0.672,3124
16.956,-1.225,3124
16.960,-2.110,3124
16.964,-2.243,3124
16.968,-2.217,3124
16.972,-2.018,3124
16.976,-1.653,3124
16.980,-1.170,3111
16.984,-0.642,3111
16.988,-0.095,3111
16.992,0.463,3111
16.996,0.973,3111
17.000,1.333,3111
17.004,1.498,3111
17.008,1.488,3111
17.012,1.258,3111
17.016,0.887,3111
17.020,0.393,3125
17.024,-0.142,3125
17.028,-0.693,3125
17.032,-1.250,3125
17.036,-1.748,3125
17.040,-2.263,3125
17.044,-2.243,3125
17.048,-2.027,3125
17.052,-1.667,3125
17.056,-1.173,3095
17.060,-0.645,3095
17.064,-0.107,3095
17.068,0.453,3095
17.072,0.978,3095
17.076,1.308,3095
17.080,1.475,3095
17.084,1.462,3095
17.088,1.238,3095
17.092,0.873,3095
17.096,0.378,3121
17.100,-0.142,3121
17.104,-0.693,3121
17.108,-1.248,3121
17.112,-1.742,3121
17.116,-2.092,3121
17.120,-2.212,3121
17.124,-1.545,3121
17.128,-1.153,3117
17.132,-0.642,3117
17.136,-0.092,3117
17.140,0.455,3117
17.144,0.953,3117
17.148,1.327,3117
17.152,1.488,3117
17.156,1.478,3117
17.160,1.268,3117
17.164,0.902,3117
17.168,0.425,3124
17.172,-0.102,3124
17.176,-0.652,3124
17.180,-1.202,3124
17.184,-1.702,3124
17.188,-2.055,3124
17.192,-2.223,3124
17.196,-2.217,3124
17.200,-1.583,3124
17.204,-1.163,3110
17.208,-0.650,3110
17.212,-0.105,3110
17.216,0.448,3110
17.220,0.943,3110
17.224,1.302,3110
17.228,1.470,3110
17.232,1.462,3110
17.236,1.248,3110
17.240,0.887,3110
17.244,0.407,3139
17.248,-0.128,3139
17.252,-0.672,3139
17.256,-1.218,3139
17.260,-1.725,3139
17.264,-2.062,3139
17.268,-2.228,3139
17.272,-2.220,3139
17.276,-2.018,3139
17.280,-1.085,3136
17.284,-0.090,3136
17.288,0.458,3136
17.292,0.958,3136
17.296,1.327,3136
17.300,1.498,3136
17.304,1.490,3136
17.308,1.272,3136
17.312,0.912,3136
17.316,0.427,3134
17.320,-0.113,3134
17.324,-0.670,3134
17.328,-1.225,3134
17.332,-1.732,3134
17.336,-2.087,3134
17.340,-2.248,3134
17.344,-2.223,3134
17.348,-2.013,3134
17.352,-1.645,3134
17.356,-1.147,3121
17.360,0.045,3121
17.364,0.477,3121
17.368,0.983,3121
17.372,1.340,3121
17.376,1.508,3121
17.380,1.495,3121
17.384,1.268,3121
17.388,0.902,3121
17.392,0.417,3144
17.396,-0.115,3144
17.400,-0.665,3144
17.404,-1.212,3144
17.408,-1.712,3144
17.412,-2.055,3144
17.416,-2.205,3144
17.420,-2.185,3144
17.424,-1.982,3144
17.428,-1.623,3144
17.432,-1.133,3126
17.436,-0.595,3126
17.440,0.573,3126
17.444,1.008,3126
17.448,1.347,3126
17.452,1.510,3126
17.456,1.495,3126
17.460,1.268,3126
17.464,0.900,3126
17.468,0.417,3162
17.472,-0.133,3162
17.476,-0.667,3162
17.480,-1.238,3162
17.484,-1.728,3162
17.488,-2.085,3162
17.492,-2.225,3162
17.496,-2.208,3162
17.500,-1.992,3162
17.504,-1.623,3162
17.508,-1.127,3126
17.512,-0.588,3126
17.516,-0.052,3126
17.520,1.062,3126
17.524,1.500,3126
17.528,1.488,3126
17.532,1.258,3126
17.536,0.890,3126
17.540,0.415,3146
17.544,-0.133,3146
17.548,-0.688,3146
17.552,-1.232,3146
17.556,-1.732,3146
17.560,-2.083,3146
17.564,-2.223,3146
17.568,-2.203,3146
17.572,-1.992,3146
17.576,-1.623,3146
17.580,-1.133,3131
17.584,-0.608,3131
17.588,-0.060,3131
17.592,0.500,3131
17.596,0.998,3131
17.600,1.528,3131
17.604,1.508,3131
17.608,1.298,3131
17.612,0.912,3131
17.616,0.422,3136
17.620,-0.115,3136
17.624,-0.672,3136
17.628,-1.232,3136
17.632,-1.738,3136
17.636,-2.087,3136
17.640,-2.228,3136
17.644,-2.215,3136
17.648,-2.007,3136
17.652,-1.627,3136
17.656,-1.135,3129
17.660,-0.598,3129
17.664,-0.058,3129
17.668,0.507,3129
17.672,1.010,3129
17.676,1.353,3129
17.680,1.470,3129
17.684,1.252,3129
17.688,0.902,3129
17.692,0.422,3113
17.696,-0.138,3113
17.700,-0.693,3113
17.704,-1.238,3113
17.708,-1.762,3113
17.712,-2.107,3113
17.716,-2.263,3113
17.720,-2.250,3113
17.724,-2.033,3113
17.728,-1.670,3113
17.732,-1.183,3122
17.736,-0.652,3122
17.740,-0.092,3122
17.744,0.458,3122
17.748,0.958,3122
17.752,1.327,3122
17.756,1.478,3122
17.760,1.192,3122
17.764,0.833,3122
17.768,0.383,3115
17.772,-0.172,3115
17.776,-0.708,3115
17.780,-1.255,3115
17.784,-1.768,3115
17.788,-2.100,3115
17.792,-2.252,3115
17.796,-2.217,3115
17.800,-2.007,3115
17.804,-1.633,3115
17.808,-1.137,3115
17.812,-0.613,3128
17.816,-0.060,3128
17.820,0.500,3128
17.824,0.993,3128
17.828,1.347,3128
17.832,1.508,3128
17.836,1.498,3128
17.840,0.828,3128
17.844,0.417,3128
17.848,-0.122,3105
17.852,-0.690,3105
17.856,-1.232,3105
17.860,-1.745,3105
17.864,-2.083,3105
17.868,-2.243,3105
17.872,-2.208,3105
17.876,-1.995,3105
17.880,-1.625,3105
17.884,-1.137,3105
17.888,-0.610,3088
17.892,-0.052,3088
17.896,0.502,3088
17.900,0.993,3088
17.904,1.337,3088
17.908,1.498,3088
17.912,1.488,3088
17.916,1.262,3088
17.920,0.333,3112
17.924,-0.685,3112
17.928,-1.228,3112
17.932,-1.730,3112
17.936,-2.087,3112
17.940,-2.252,3112
17.944,-2.228,3112
17.948,-2.027,3112
17.952,-1.657,3112
17.956,-1.173,3112
17.960,-0.645,3114
17.964,-0.087,3114
17.968,0.468,3114
17.972,0.958,3114
17.976,1.327,3114
17.980,1.492,3114
17.984,1.482,3114
17.988,1.258,3114
17.992,0.892,3114
17.996,0.398,3114
18.000,-0.800,3125
18.004,-1.762,3125
18.008,-2.092,3125
18.012,-2.250,3125
18.016,-2.223,3125
18.020,-2.022,3125
18.024,-1.660,3125
18.028,-1.173,3125
18.032,-0.652,3117
18.036,-0.092,3117
18.040,0.463,3117
18.044,0.953,3117
18.048,1.335,3117
18.052,1.492,3117
18.056,1.470,3117
18.060,1.248,3117
18.064,0.868,3117
18.068,0.383,3117
18.072,-0.140,3113
18.076,-0.703,3113
18.080,-1.843,3113
18.084,-2.163,3113
18.088,-2.292,3113
18.092,-2.252,3113
18.096,-2.033,3113
18.100,-1.663,3113
18.104,-1.123,3113
18.108,-0.642,3117
18.112,-0.072,3117
18.116,0.477,3117
18.120,0.983,3117
18.124,1.335,3117
18.128,1.490,3117
18.132,1.472,3117
18.136,1.258,3117
18.140,0.892,3117
18.144,0.417,3117
18.148,-0.113,3129
18.152,-0.680,3129
18.156,-1.222,3129
18.160,-2.042,3129
18.164,-2.223,3129
18.168,-2.208,3129
18.172,-2.002,3129
18.176,-1.625,3129
18.180,-1.145,3129
18.184,-0.618,3121
18.188,-0.048,3121
18.192,0.500,3121
18.196,0.993,3121
18.200,1.340,3121
18.204,1.498,3121
18.208,1.468,3121
18.212,1.248,3121
18.216,0.870,3121
18.220,0.388,3121
18.224,-0.180,3106
18.228,-0.728,3106
18.232,-1.268,3106
18.236,-1.782,3106
18.240,-2.288,3106
18.244,-2.255,3106
18.248,-2.042,3106
18.252,-1.647,3106
18.256,-1.173,3106
18.260,-0.650,3101
18.264,-0.068,3101
18.268,0.472,3101
18.272,0.983,3101
18.276,1.340,3101
18.280,1.498,3101
18.284,1.488,3101
18.288,1.262,3101
18.292,0.897,3101
18.296,0.412,3101
18.300,-0.115,3125
18.304,-0.693,3125
18.308,-1.232,3125
18.312,-1.740,3125
18.316,-2.090,3125
18.320,-2.212,3125
18.324,-2.025,3125
18.328,-1.657,3125
18.332,-1.167,3125
18.336,-0.650,3122
18.340,-0.092,3122
18.344,0.465,3122
18.348,0.955,3122
18.352,1.317,3122
18.356,1.478,3122
18.360,1.462,3122
18.364,1.250,3122
18.368,0.875,3122
18.372,0.390,3122
18.376,-0.133,3127
18.380,-0.703,3127
18.384,-1.252,3127
18.388,-1.762,3127
18.392,-2.098,3127
18.396,-2.243,3127
18.400,-1.952,3127
18.404,-1.623,3127
18.408,-1.130,3127
18.412,-0.608,3137
18.416,-0.050,3137
18.420,0.502,3137
18.424,0.993,3137
18.428,1.343,3137
18.432,1.500,3137
18.436,1.475,3137
18.440,1.240,3137
18.444,0.870,3137
18.448,0.388,3137
18.452,-0.135,3129
18.456,-0.708,3129
18.460,-1.252,3129
18.464,-1.742,3129
18.468,-2.092,3129
18.472,-2.250,3129
18.476,-2.223,3129
18.480,-1.565,3129
18.484,-1.035,3129
18.488,-0.613,3131
18.492,-0.058,3131
18.496,0.495,3131
18.500,0.988,3131
18.504,1.333,3131
18.508,1.492,3131
18.512,1.470,3131
18.516,1.252,3131
18.520,0.882,3131
18.524,0.385,3131
18.528,-0.140,3128
18.532,-0.728,3128
18.536,-1.292,3128
18.540,-1.782,3128
18.544,-2.125,3128
18.548,-2.272,3128
18.552,-2.257,3128
18.556,-2.038,3128
18.560,-1.067,3128
18.564,-0.623,3137
18.568,-0.072,3137
18.572,0.468,3137
18.576,0.973,3137
18.580,1.325,3137
18.584,1.490,3137
18.588,1.468,3137
18.592,1.238,3137
18.596,0.873,3137
18.600,0.393,3137
18.604,-0.125,3119
18.608,-0.690,3119
18.612,-1.262,3119
18.616,-1.728,3119
18.620,-2.065,3119
18.624,-2.223,3119
18.628,-2.203,3119
18.632,-1.980,3119
18.636,-1.613,3119
18.640,-0.520,3138
18.644,0.507,3138
18.648,0.995,3138
18.652,1.350,3138
18.656,1.508,3138
18.660,1.485,3138
18.664,1.248,3138
18.668,0.868,3138
18.672,0.383,3138
18.676,-0.147,3129
18.680,-0.733,3129
18.684,-1.298,3129
18.688,-1.785,3129
18.692,-2.132,3129
18.696,-2.272,3129
18.700,-2.252,3129
18.704,-2.027,3129
18.708,-1.653,3129
18.712,-1.163,3129
18.716,-0.642,3116
18.720,0.580,3116
18.724,0.985,3116
18.728,1.343,3116
18.732,1.505,3116
18.736,1.488,3116
18.740,1.262,3116
18.744,0.895,3116
18.748,0.417,3116
18.752,-0.102,3135
18.756,-0.688,3135
18.760,-1.218,3135
18.764,-1.715,3135
18.768,-2.058,3135
18.772,-2.215,3135
18.776,-2.188,3135
18.780,-1.978,3135
18.784,-1.603,3135
18.788,-1.097,3135
18.792,-0.570,3121
18.796,-0.007,3121
18.800,1.097,3121
18.804,1.410,3121
18.808,1.555,3121
18.812,1.538,3121
18.816,1.323,3121
18.820,0.927,3121
18.824,0.435,3121
18.828,-0.095,3121
18.832,-0.670,3122
18.836,-1.250,3122
18.840,-1.738,3122
18.844,-2.092,3122
18.848,-2.243,3122
18.852,-2.210,3122
18.856,-1.988,3122
18.860,-1.617,3122
18.864,-1.123,3122
18.868,-0.590,3122
18.872,-0.048,3127
18.876,0.535,3127
18.880,1.397,3127
18.884,1.528,3127
18.888,1.502,3127
18.892,1.272,3127
18.896,0.897,3127
18.900,0.422,3127
18.904,-0.098,3127
18.908,-0.657,3121
18.912,-1.220,3121
18.916,-1.710,3121
18.920,-2.053,3121
18.924,-2.208,3121
18.928,-2.180,3121
18.932,-1.975,3121
18.936,-1.603,3121
18.940,-1.103,3121
18.944,-0.588,3121
18.948,-0.045,3116
18.952,0.517,3116
18.956,0.998,3116
18.960,1.512,3116
18.964,1.472,3116
18.968,1.258,3116
18.972,0.873,3116
18.976,0.398,3116
18.980,-0.135,3116
18.984,-0.693,3097
18.988,-1.258,3097
18.992,-1.740,3097
18.996,-2.090,3097
19.000,-2.248,3097
19.004,-2.212,3097
19.008,-1.992,3097
19.012,-1.623,3097
19.016,-1.137,3097
19.020,-0.608,3097
19.024,-0.048,3108
19.028,0.510,3108
19.032,0.995,3108
19.036,1.347,3108
19.040,1.468,3108
19.044,1.268,3108
19.048,0.890,3108
19.052,0.410,3108
19.056,-0.128,3108
19.060,-0.693,3113
19.064,-1.260,3113
19.068,-1.762,3113
19.072,-2.095,3113
19.076,-2.248,3113
19.080,-2.215,3113
19.084,-2.010,3113
19.088,-1.627,3113
19.092,-1.143,3113
19.096,-0.623,3113
19.100,-0.085,3120
19.104,0.477,3120
19.108,0.978,3120
19.112,1.327,3120
19.116,1.488,3120
19.120,1.180,3120
19.124,0.833,3120
19.128,0.378,3120
19.132,-0.145,3120
19.136,-0.698,3118
19.140,-1.265,3118
19.144,-1.740,3118
19.148,-2.085,3118
19.152,-2.223,3118
19.156,-2.205,3118
19.160,-1.992,3118
19.164,-1.620,3118
19.168,-1.123,3118
19.172,-0.590,3118
19.176,-0.058,3113
19.180,0.522,3113
19.184,1.008,3113
19.188,1.353,3113
19.192,1.508,3113
19.196,1.490,3113
19.200,0.820,3113
19.204,0.410,3113
19.208,-0.122,3113
19.212,-0.672,3116
19.216,-1.238,3116
19.220,-1.722,3116
19.224,-2.058,3116
19.228,-2.217,3116
19.232,-2.197,3116
19.236,-1.990,3116
19.240,-1.617,3116
19.244,-1.133,3116
19.248,-0.603,3116
19.252,-0.045,3098
19.256,0.532,3098
19.260,1.015,3098
19.264,1.370,3098
19.268,1.518,3098
19.272,1.500,3098
19.276,1.268,3098
19.280,0.310,3098
19.284,-0.133,3098
19.288,-0.698,3134
19.292,-1.262,3134
19.296,-1.768,3134
19.300,-2.100,3134
19.304,-2.260,3134
19.308,-2.245,3134
19.312,-2.020,3134
19.316,-1.647,3134
19.320,-1.153,3134
19.324,-0.623,3134
19.328,-0.070,3139
19.332,0.505,3139
19.336,0.983,3139
19.340,1.333,3139
19.344,1.490,3139
19.348,1.468,3139
19.352,1.232,3139
19.356,0.858,3139
19.360,-0.258,3139
19.364,-0.738,3123
19.368,-1.308,3123
19.372,-1.782,3123
19.376,-2.132,3123
19.380,-2.268,3123
19.384,-2.243,3123
19.388,-2.000,3123
19.392,-1.633,3123
19.396,-1.137,3123
19.400,-0.618,3123
19.404,-0.060,3108
19.408,0.512,3108
19.412,1.008,3108
19.416,1.353,3108
19.420,1.502,3108
19.424,1.475,3108
19.428,1.248,3108
19.432,0.870,3108
19.436,0.380,3108
19.440,-0.807,3142
19.444,-1.780,3142
19.448,-2.092,3142
19.452,-2.243,3142
19.456,-2.205,3142
19.460,-1.988,3142
19.464,-1.613,3142
19.468,-1.107,3142
19.472,-0.588,3142
19.476,-0.043,3116
19.480,0.527,3116
19.484,1.010,3116
19.488,1.347,3116
19.492,1.502,3116
19.496,1.470,3116
19.500,1.238,3116
19.504,0.858,3116
19.508,0.372,3116
19.512,-0.163,3116
19.516,-0.710,3147
19.520,-1.840,3147
19.524,-2.107,3147
19.528,-2.252,3147
19.532,-2.223,3147
19.536,-2.007,3147
19.540,-1.630,3147
19.544,-1.135,3147
19.548,-0.610,3147
19.552,-0.052,3117
19.556,0.512,3117
19.560,1.008,3117
19.564,1.350,3117
19.568,1.502,3117
19.572,1.482,3117
19.576,1.235,3117
19.580,0.868,3117
19.584,0.372,3117
19.588,-0.165,3117
19.592,-0.713,3135
19.596,-1.298,3135
19.600,-2.123,3135
19.604,-2.223,3135
19.608,-2.195,3135
19.612,-1.978,3135
19.616,-1.613,3135
19.620,-1.110,3135
19.624,-0.580,3135
19.628,-0.040,3137
19.632,0.527,3137
19.636,1.008,3137
19.640,1.343,3137
19.644,1.492,3137
19.648,1.465,3137
19.652,1.230,3137
19.656,0.853,3137
19.660,0.367,3137
19.664,-0.147,3137
19.668,-0.710,3127
19.672,-1.268,3127
19.676,-1.762,3127
19.680,-2.228,3127
19.684,-2.190,3127
19.688,-1.972,3127
19.692,-1.583,3127
19.696,-1.093,3127
19.700,-0.570,3127
19.704,-0.018,3124
19.708,0.547,3124
19.712,1.028,3124
19.716,1.380,3124
19.720,1.538,3124
19.724,1.510,3124
19.728,1.270,3124
19.732,0.895,3124
19.736,0.395,3124
19.740,-0.133,3124
19.744,-0.698,3103
19.748,-1.260,3103
19.752,-1.738,3103
19.756,-2.085,3103
19.760,-2.178,3103
19.764,-1.985,3103
19.768,-1.617,3103
19.772,-1.083,3103
19.776,-0.583,3103
19.780,-0.048,3116
19.784,0.530,3116
19.788,1.010,3116
19.792,1.347,3116
19.796,1.508,3116
19.800,1.488,3116
19.804,1.252,3116
19.808,0.875,3116
19.812,0.380,3116
19.816,-0.140,3116
19.820,-0.705,3134
19.824,-1.298,3134
19.828,-1.770,3134
19.832,-2.105,3134
19.836,-2.248,3134
19.840,-1.942,3134
19.844,-1.620,3134
19.848,-1.125,3134
19.852,-0.583,3134
19.856,-0.033,3130
19.860,0.530,3130
19.864,1.018,3130
19.868,1.347,3130
19.872,1.502,3130
19.876,1.475,3130
19.880,1.248,3130
19.884,0.863,3130
19.888,0.372,3130
19.892,-0.168,3130
19.896,-0.733,3130
19.900,-1.305,3131
19.904,-1.805,3131
19.908,-2.127,3131
19.912,-2.268,3131
19.916,-2.223,3131
19.920,-1.552,3131
19.924,-1.067,3131
19.928,-0.580,3131
19.932,-0.030,3131
19.936,0.537,3126
19.940,1.038,3126
19.944,1.377,3126
19.948,1.528,3126
19.952,1.492,3126
19.956,1.258,3126
19.960,0.887,3126
19.964,0.393,3126
19.968,-0.130,3126
19.972,-0.695,3126
19.976,-1.252,3124
19.980,-1.768,3124
19.984,-2.087,3124
19.988,-2.228,3124
19.992,-2.208,3124
19.996,-2.002,3124
20.000,-1.060,3124
20.004,-0.570,3124
20.008,-0.070,3124
20.012,0.500,3117
20.016,0.995,3117
20.020,1.335,3117
20.024,1.482,3117
20.028,1.438,3117
20.032,1.208,3117
20.036,0.828,3117
20.040,0.338,3117
20.044,-0.193,3117
20.048,-0.748,3117
20.052,-1.308,3121
20.056,-1.792,3121
20.060,-2.110,3121
20.064,-2.252,3121
20.068,-2.203,3121
20.072,-1.978,3121
20.076,-1.603,3121
20.080,-0.487,3121
20.084,-0.025,3121
20.088,0.535,3110
20.092,1.025,3110
20.096,1.370,3110
20.100,1.508,3110
20.104,1.485,3110
20.108,1.238,3110
20.112,0.860,3110
20.116,0.367,3110
20.120,-0.180,3110
20.124,-0.743,3110
20.128,-1.308,3104
20.132,-1.808,3104
20.136,-2.127,3104
20.140,-2.268,3104
20.144,-2.243,3104
20.148,-2.010,3104
20.152,-1.643,3104
20.156,-1.140,3104
20.160,0.037,3121
20.164,1.008,3121
20.168,1.327,3121
20.172,1.478,3121
20.176,1.458,3121
20.180,1.218,3121
20.184,0.835,3121
20.188,0.357,3121
20.192,-0.172,3121
20.196,-0.733,3121
20.200,-1.302,3106
20.204,-1.788,3106
20.208,-2.107,3106
20.212,-2.252,3106
20.216,-2.212,3106
20.220,-1.992,3106
20.224,-1.617,3106
20.228,-1.107,3106
20.232,-0.580,3106
20.236,-0.033,3106
20.240,1.070,3097
20.244,1.488,3097
20.248,1.448,3097
20.252,1.210,3097
20.256,0.823,3097
20.260,0.335,3097
20.264,-0.203,3097
20.268,-0.750,3097
20.272,-1.327,3125
20.276,-1.812,3125
20.280,-2.112,3125
20.284,-2.250,3125
20.288,-2.205,3125
20.292,-1.978,3125
20.296,-1.587,3125
20.300,-1.093,3125
20.304,-0.578,3125
20.308,-0.022,3125
20.312,0.537,3137
20.316,1.022,3137
20.320,1.508,3137
20.324,1.468,3137
20.328,1.222,3137
20.332,0.843,3137
20.336,0.350,3137
20.340,-0.182,3137
20.344,-0.738,3137
20.348,-1.302,3137
20.352,-1.792,3137
20.356,-2.105,3137
20.360,-2.252,3137
20.364,-2.212,3137
20.368,-1.982,3137
20.372,-1.607,3137
20.376,-1.100,3137
20.380,-0.583,3137
20.384,-0.035,3137
20.388,0.512,3115
20.392,1.010,3115
20.396,1.337,3115
20.400,1.417,3115
20.404,1.218,3115
20.408,0.828,3115
20.412,0.347,3115
20.416,-0.182,3115
20.420,-0.743,3115
20.424,-1.312,3138
20.428,-1.812,3138
20.432,-2.132,3138
20.436,-2.270,3138
20.440,-2.243,3138
20.444,-2.013,3138
20.448,-1.633,3138
20.452,-1.135,3138
20.456,-0.605,3138
20.460,-0.050,3138
20.464,0.517,3127
20.468,1.018,3127
20.472,1.345,3127
20.476,1.492,3127
20.480,1.173,3127
20.484,0.823,3127
20.488,0.357,3127
20.492,-0.177,3127
20.496,-0.733,3127
20.500,-1.302,3143
20.504,-1.800,3143
20.508,-2.123,3143
20.512,-2.263,3143
20.516,-2.217,3143
20.520,-1.992,3143
20.524,-1.607,3143
20.528,-1.103,3143
20.532,-0.578,3143
20.536,-0.028,3143
20.540,0.540,3134
20.544,1.032,3134
20.548,1.377,3134
20.552,1.508,3134
20.556,1.472,3134
20.560,0.767,3134
20.564,0.352,3134
20.568,-0.595,3134
20.572,-1.323,3141
20.576,-1.827,3141
20.580,-2.130,3141
20.584,-2.268,3141
20.588,-2.217,3141
20.592,-1.990,3141
20.596,-1.603,3141
20.600,-1.097,3141
20.604,-0.565,3141
20.608,-0.010,3141
20.612,0.555,3090
20.616,1.048,3090
20.620,1.375,3090
20.624,1.518,3090
20.628,1.472,3090
20.632,1.232,3090
20.636,0.845,3090
20.640,-0.273,3090
20.644,-0.745,3090
20.648,-1.312,3150
20.652,-1.817,3150
20.656,-2.138,3150
20.660,-2.283,3150
20.664,-2.243,3150
20.668,-2.022,3150
20.672,-1.630,3150
20.676,-1.147,3150
20.680,-0.613,3150
20.684,-0.060,3150
20.688,0.507,3122
20.692,1.002,3122
20.696,1.333,3122
20.700,1.482,3122
20.704,1.430,3122
20.708,1.198,3122
20.712,0.820,3122
20.716,0.338,3122
20.720,-0.882,3122
20.724,-1.312,3095
20.728,-2.152,3095
20.732,-2.268,3095
20.736,-2.188,3095
20.740,-1.972,3095
20.744,-1.520,3095
20.748,-1.077,3095
20.752,-0.542,3095
20.756,-0.030,3095
20.760,0.527,3121
20.764,1.052,3121
20.768,1.353,3121
20.772,1.468,3121
20.776,1.423,3121
20.780,1.188,3121
20.784,0.790,3121
20.788,0.300,3121
20.792,-0.223,3121
20.796,-0.782,3121
20.800,-1.960,3121
20.804,-2.292,3121
20.808,-2.217,3121
20.812,-1.988,3121
20.816,-1.603,3121
20.820,-1.093,3121
20.824,-0.562,3121
20.828,0.018,3121
20.832,0.573,3131
20.836,1.055,3131
20.840,1.383,3131
20.844,1.528,3131
20.848,1.488,3131
20.852,1.238,3131
20.856,0.853,3131
20.860,0.357,3131
20.864,-0.177,3131
20.868,-0.735,3131
20.872,-1.300,3112
20.876,-1.802,3112
20.880,-2.248,3112
20.884,-2.203,3112
20.888,-1.978,3112
20.892,-1.583,3112
20.896,-1.093,3112
20.900,-0.570,3112
20.904,-0.020,3112
20.908,0.537,3112
20.912,1.018,3109
20.916,1.347,3109
20.920,1.492,3109
20.924,1.452,3109
20.928,1.198,3109
20.932,0.833,3109
20.936,0.338,3109
20.940,-0.195,3109
20.944,-0.750,3109
20.948,-1.323,3118
20.952,-1.823,3118
20.956,-2.127,3118
20.960,-2.178,3118
20.964,-1.968,3118
20.968,-1.567,3118
20.972,-1.067,3118
20.976,-0.537,3118
20.980,0.022,3118
20.984,0.557,3118
20.988,1.040,3122
20.992,1.383,3122
20.996,1.515,3122
21.000,1.468,3122
21.004,1.220,3122
21.008,0.825,3122
21.012,0.333,3122
21.016,-0.212,3122
21.020,-0.767,3122
21.024,-1.337,3122
21.028,-1.815,3120
21.032,-2.135,3120
21.036,-2.268,3120
21.040,-1.948,3120
21.044,-1.580,3120
21.048,-1.103,3120
21.052,-0.578,3120
21.056,-0.022,3120
21.060,0.537,3120
21.064,1.028,3124
21.068,1.373,3124
21.072,1.508,3124
21.076,1.482,3124
21.080,1.232,3124
21.084,0.853,3124
21.088,0.352,3124
21.092,-0.175,3124
21.096,-0.730,3124
21.100,-1.292,3124
21.104,-1.775,3106
21.108,-2.092,3106
21.112,-2.217,3106
21.116,-2.178,3106
21.120,-1.488,3106
21.124,-1.048,3106
21.128,-0.542,3106
21.132,0.018,3106
21.136,0.568,3106
21.140,1.048,3109
21.144,1.377,3109
21.148,1.508,3109
21.152,1.460,3109
21.156,1.208,3109
21.160,0.812,3109
21.164,0.307,3109
21.168,-0.217,3109
21.172,-0.772,3109
21.176,-1.327,3109
21.180,-1.802,3119
21.184,-2.107,3119
21.188,-2.225,3119
21.192,-2.188,3119
21.196,-1.962,3119
21.200,-0.988,3119
21.204,-0.552,3119
21.208,-0.013,3119
21.212,0.547,3119
21.216,1.028,3130
21.220,1.357,3130
21.224,1.500,3130
21.228,1.460,3130
21.232,1.212,3130
21.236,0.823,3130
21.240,0.333,3130
21.244,-0.207,3130
21.248,-0.767,3130
21.252,-1.335,3130
21.256,-1.812,3114
21.260,-2.127,3114
21.264,-2.252,3114
21.268,-2.197,3114
21.272,-1.972,3114
21.276,-1.573,3114
21.280,-0.458,3114
21.284,0.015,3114
21.288,0.562,3114
21.292,1.038,3108
21.296,1.367,3108
21.300,1.492,3108
21.304,1.455,3108
21.308,1.208,3108
21.312,0.820,3108
21.316,0.295,3108
21.320,-0.207,3108
21.324,-0.752,3108
21.328,-1.323,3108
21.332,-1.782,3125
21.336,-2.103,3125
21.340,-2.228,3125
21.344,-2.188,3125
21.348,-1.952,3125
21.352,-1.548,3125
21.356,-1.058,3125
21.360,0.107,3125
21.364,0.588,3125
21.368,1.038,3140
21.372,1.357,3140
21.376,1.488,3140
21.380,1.427,3140
21.384,1.183,3140
21.388,0.787,3140
21.392,0.300,3140
21.396,-0.223,3140
21.400,-0.785,3140
21.404,-1.353,3140
21.408,-1.833,3102
21.412,-2.150,3102
21.416,-2.283,3102
21.420,-2.223,3102
21.424,-1.982,3102
21.428,-1.583,3102
21.432,-1.083,3102
21.436,-0.560,3102
21.440,0.652,3102
21.444,1.040,3135
21.448,1.380,3135
21.452,1.510,3135
21.456,1.472,3135
21.460,1.228,3135
21.464,0.835,3135
21.468,0.338,3135
21.472,-0.203,3135
21.476,-0.765,3135
21.480,-1.333,3135
21.484,-1.815,3114
21.488,-2.140,3114
21.492,-2.265,3114
21.496,-2.217,3114
21.500,-1.988,3114
21.504,-1.607,3114
21.508,-1.107,3114
21.512,-0.583,3114
21.516,-0.048,3114
21.520,1.073,3125
21.524,1.488,3125
21.528,1.438,3125
21.532,1.205,3125
21.536,0.823,3125
21.540,0.310,3125
21.544,-0.210,3125
21.548,-0.767,3125
21.552,-1.335,3125
21.556,-1.810,3141
21.560,-2.127,3141
21.564,-2.257,3141
21.568,-2.208,3141
21.572,-1.972,3141
21.576,-1.573,3141
21.580,-1.067,3141
21.584,-0.535,3141
21.588,0.043,3141
21.592,0.598,3141
21.596,1.080,3134
21.600,1.532,3134
21.604,1.482,3134
21.608,1.228,3134
21.612,0.848,3134
21.616,0.352,3134
21.620,-0.188,3134
21.624,-0.757,3134
21.628,-1.330,3134
21.632,-1.808,3123
21.636,-2.130,3123
21.640,-2.257,3123
21.644,-2.208,3123
21.648,-1.975,3123
21.652,-1.573,3123
21.656,-1.062,3123
21.660,-0.540,3123
21.664,0.028,3123
21.668,0.578,3123
21.672,1.067,3120
21.676,1.380,3120
21.680,1.433,3120
21.684,1.218,3120
21.688,0.818,3120
21.692,0.310,3120
21.696,-0.220,3120
21.700,-0.835,3120
21.704,-1.347,3120
21.708,-1.823,3128
21.712,-2.145,3128
21.716,-2.270,3128
21.720,-2.223,3128
21.724,-1.985,3128
21.728,-1.580,3128
21.732,-1.097,3128
21.736,-0.570,3128
21.740,-0.020,3128
21.744,0.542,3128
21.748,1.028,3138
21.752,1.353,3138
21.756,1.490,3138
21.760,1.140,3138
21.764,0.795,3138
21.768,0.302,3138
21.772,-0.228,3138
21.776,-0.802,3138
21.780,-1.365,3138
21.784,-1.843,3119
21.788,-2.167,3119
21.792,-2.292,3119
21.796,-2.248,3119
21.800,-2.005,3119
21.804,-1.613,3119
21.808,-1.100,3119
21.812,-0.568,3119
21.816,-0.010,3119
21.820,0.568,3119
21.824,1.048,3123
21.828,1.357,3123
21.832,1.492,3123
21.836,1.452,3123
21.840,0.735,3123
21.844,0.307,3123
21.848,-0.215,3123
21.852,-0.772,3123
21.856,-1.327,3123
21.860,-1.805,3112
21.864,-2.127,3112
21.868,-2.252,3112
21.872,-2.188,3112
21.876,-1.948,3112
21.880,-1.548,3112
21.884,-1.042,3112
21.888,-0.520,3112
21.892,0.043,3112
21.896,0.580,3112
21.900,1.055,3123
21.904,1.375,3123
21.908,1.500,3123
21.912,1.450,3123
21.916,1.192,3123
21.920,0.242,3123
21.924,-0.242,3123
21.928,-0.762,3123
21.932,-1.315,3123
21.936,-1.788,3123
21.940,-2.107,3117
21.944,-2.248,3117
21.948,-2.188,3117
21.952,-1.952,3117
21.956,-1.565,3117
21.960,-1.070,3117
21.964,-0.547,3117
21.968,0.022,3117
21.972,0.568,3117
21.976,1.038,3117
21.980,1.357,3126
21.984,1.498,3126
21.988,1.433,3126
21.992,1.192,3126
21.996,0.777,3126
22.000,-0.333,3126
22.004,-0.782,3126
22.008,-1.345,3126
22.012,-1.817,3126
22.016,-2.127,3114
22.020,-2.252,3114
22.024,-2.183,3114
22.028,-1.942,3114
22.032,-1.540,3114
22.036,-1.042,3114
22.040,-0.512,3114
22.044,0.052,3114
22.048,0.598,3114
22.052,1.073,3114
22.056,1.387,3122
22.060,1.530,3122
22.064,1.478,3122
22.068,1.232,3122
22.072,0.843,3122
22.076,0.340,3122
22.080,-0.865,3122
22.084,-1.333,3122
22.088,-1.815,3122
22.092,-2.140,3110
22.096,-2.263,3110
22.100,-2.210,3110
22.104,-1.968,3110
22.108,-1.570,3110
22.112,-1.062,3110
22.116,-0.522,3110
22.120,0.033,3110
22.124,0.588,3110
22.128,1.065,3110
22.132,1.387,3099
22.136,1.518,3099
22.140,1.460,3099
22.144,1.212,3099
22.148,0.797,3099
22.152,0.302,3099
22.156,-0.228,3099
22.160,-1.420,3099
22.164,-1.815,3099
22.168,-2.123,3096
22.172,-2.250,3096
22.176,-2.188,3096
22.180,-1.952,3096
22.184,-1.548,3096
22.188,-1.052,3096
22.192,-0.497,3096
22.196,0.037,3096
22.200,0.583,3096
22.204,1.062,3096
22.208,1.383,3110
22.212,1.512,3110
22.216,1.460,3110
22.220,1.215,3110
22.224,0.818,3110
22.228,0.312,3110
22.232,-0.210,3110
22.236,-0.780,3110
22.240,-1.870,3110
22.244,-2.123,3100
22.248,-2.250,3100
22.252,-2.188,3100
22.256,-1.950,3100
22.260,-1.552,3100
22.264,-1.060,3100
22.268,-0.542,3100
22.272,0.020,3100
22.276,0.568,3100
22.280,1.038,3100
22.284,1.357,3128
22.288,1.492,3128
22.292,1.452,3128
22.296,1.202,3128
22.300,0.818,3128
22.304,0.312,3128
22.308,-0.212,3128
22.312,-0.782,3128
22.316,-1.343,3128
22.320,-2.203,3108
22.324,-2.203,3108
22.328,-1.978,3108
22.332,-1.583,3108
22.336,-1.095,3108
22.340,-0.573,3108
22.344,-0.018,3108
22.348,0.545,3108
22.352,1.018,3108
22.356,1.347,3103
22.360,1.485,3103
22.364,1.427,3103
22.368,1.183,3103
22.372,0.787,3103
22.376,0.297,3103
22.380,-0.228,3103
22.384,-0.782,3103
22.388,-1.347,3103
22.392,-1.817,3103
22.396,-2.138,3138
22.400,-2.163,3138
22.404,-1.887,3138
22.408,-1.552,3138
22.412,-1.052,3138
22.416,-0.527,3138
22.420,0.037,3138
22.424,0.578,3138
22.428,1.048,3138
22.432,1.370,3129
22.436,1.500,3129
22.440,1.458,3129
22.444,1.198,3129
22.448,0.818,3129
22.452,0.310,3129
22.456,-0.215,3129
22.460,-0.782,3129
22.464,-1.347,3129
22.468,-1.833,3129
22.472,-2.143,3126
22.476,-2.283,3126
22.480,-1.942,3126
22.484,-1.585,3126
22.488,-1.087,3126
22.492,-0.552,3126
22.496,0.018,3126
22.500,0.578,3126
22.504,1.032,3126
22.508,1.360,3133
22.512,1.498,3133
22.516,1.462,3133
22.520,1.215,3133
22.524,0.823,3133
22.528,0.318,3133
22.532,-0.212,3133
22.536,-0.770,3133
22.540,-1.327,3133
22.544,-1.808,3133
22.548,-2.107,3136
22.552,-2.225,3136
22.556,-2.183,3136
22.560,-1.472,3136
22.564,-1.048,3136
22.568,-0.507,3136
22.572,0.055,3136
22.576,0.608,3136
22.580,1.077,3136
22.584,1.397,3105
22.588,1.518,3105
22.592,1.470,3105
22.596,1.218,3105
22.600,0.818,3105
22.604,0.307,3105
22.608,-0.225,3105
22.612,-0.802,3105
22.616,-1.367,3105
22.620,-1.843,3105
22.624,-2.147,3154
22.628,-2.280,3154
22.632,-2.220,3154
22.636,-1.982,3154
22.640,-0.983,3154
22.644,-0.542,3154
22.648,0.028,3154
22.652,0.578,3154
22.656,1.052,3154
22.660,1.377,3131
22.664,1.508,3131
22.668,1.460,3131
22.672,1.208,3131
22.676,0.797,3131
22.680,0.297,3131
22.684,-0.233,3131
22.688,-0.807,3131
22.692,-1.367,3131
22.696,-1.843,3131
22.700,-2.145,3134
22.704,-2.270,3134
22.708,-2.208,3134
22.712,-1.968,3134
22.716,-1.552,3134
22.720,-0.427,3134
22.724,0.043,3134
22.728,0.588,3134
22.732,1.067,3134
22.736,1.397,3140
22.740,1.518,3140
22.744,1.462,3140
22.748,1.208,3140
22.752,0.812,3140
22.756,0.300,3140
22.760,-0.233,3140
22.764,-0.807,3140
22.768,-1.363,3140
22.772,-1.823,3140
22.776,-2.125,3116
22.780,-2.252,3116
22.784,-2.183,3116
22.788,-1.948,3116
22.792,-1.540,3116
22.796,-1.032,3116
22.800,0.142,3116
22.804,0.608,3116
22.808,1.095,3116
22.812,1.413,3121
22.816,1.542,3121
22.820,1.492,3121
22.824,1.238,3121
22.828,0.843,3121
22.832,0.347,3121
22.836,-0.203,3121
22.840,-0.772,3121
22.844,-1.340,3121
22.848,-1.815,3121
22.852,-2.127,3137
22.856,-2.252,3137
22.860,-2.192,3137
22.864,-1.952,3137
22.868,-1.545,3137
22.872,-1.018,3137
22.876,-0.527,3137
22.880,0.672,3137
22.884,1.055,3137
22.888,1.370,3138
22.892,1.492,3138
22.896,1.417,3138
22.900,1.177,3138
22.904,0.772,3138
22.908,0.280,3138
22.912,-0.247,3138
22.916,-0.810,3138
22.920,-1.373,3138
22.924,-1.843,3138
22.928,-2.147,3115
22.932,-2.272,3115
22.936,-2.212,3115
22.940,-1.968,3115
22.944,-1.558,3115
22.948,-1.050,3115
22.952,-0.522,3115
22.956,0.058,3115
22.960,1.157,3115
22.964,1.397,3132
22.968,1.538,3132
22.972,1.488,3132
22.976,1.218,3132
22.980,0.820,3132
22.984,0.335,3132
22.988,-0.217,3132
22.992,-0.772,3132
22.996,-1.343,3132
23.000,-1.815,3132
23.004,-2.123,3132
23.008,-2.252,3138
23.012,-2.188,3138
23.016,-1.942,3138
23.020,-1.545,3138
23.024,-1.045,3138
23.028,-0.507,3138
23.032,0.052,3138
23.036,0.590,3138
23.040,1.415,3112
23.044,1.452,3112
23.048,1.188,3112
23.052,0.688,3112
23.056,0.273,3112
23.060,-0.245,3112
23.064,-0.812,3112
23.068,-1.373,3112
23.072,-1.833,3112
23.076,-2.132,3112
23.080,-2.257,3129
23.084,-2.188,3129
23.088,-1.948,3129
23.092,-1.542,3129
23.096,-1.042,3129
23.100,-0.507,3129
23.104,0.058,3129
23.108,0.613,3129
23.112,1.095,3129
23.116,1.407,3129
23.120,1.452,3123
23.124,0.760,3123
23.128,0.292,3123
23.132,-0.215,3123
23.136,-0.772,3123
23.140,-1.335,3123
23.144,-1.805,3123
23.148,-2.112,3123
23.152,-2.248,3105
23.156,-2.167,3105
23.160,-1.923,3105
23.164,-1.520,3105
23.168,-1.018,3105
23.172,-0.497,3105
23.176,0.058,3105
23.180,0.598,3105
23.184,1.070,3105
23.188,1.383,3105
23.192,1.508,3117
23.196,1.435,3117
23.200,0.728,3117
23.204,0.297,3117
23.208,-0.233,3117
23.212,-0.810,3117
23.216,-1.365,3117
23.220,-1.827,3117
23.224,-2.138,3117
23.228,-2.257,3101
23.232,-2.192,3101
23.236,-1.952,3101
23.240,-1.545,3101
23.244,-1.048,3101
23.248,-0.522,3101
23.252,0.070,3101
23.256,0.578,3101
23.260,1.038,3101
23.264,1.353,3101
23.268,1.485,3116
23.272,1.427,3116
23.276,1.090,3116
23.280,0.193,3116
23.284,-0.253,3116
23.288,-1.458,3116
23.292,-1.855,3116
23.296,-2.163,3116
23.300,-2.268,3130
23.304,-2.203,3130
23.308,-1.948,3130
23.312,-1.538,3130
23.316,-1.032,3130
23.320,-0.507,3130
23.324,0.060,3130
23.328,0.613,3130
23.332,1.077,3130
23.336,1.383,3130
23.340,1.502,3086
23.344,1.433,3086
23.348,1.177,3086
23.352,0.770,3086
23.356,0.265,3086
23.360,-0.915,3086
23.364,-1.407,3086
23.368,-1.850,3086
23.372,-2.147,3086
23.376,-2.263,3104
23.380,-2.192,3104
23.384,-1.948,3104
23.388,-1.548,3104
23.392,-1.052,3104
23.396,-0.527,3104
23.400,0.043,3104
23.404,0.578,3104
23.408,1.052,3104
23.412,1.367,3104
23.416,1.492,3120
23.420,1.425,3120
23.424,1.183,3120
23.428,0.780,3120
23.432,0.278,3120
23.436,-0.253,3120
23.440,-1.458,3120
23.444,-1.847,3120
23.448,-2.143,3120
23.452,-2.263,3122
23.456,-2.203,3122
23.460,-1.950,3122
23.464,-1.552,3122
23.468,-1.052,3122
23.472,-0.522,3122
23.476,0.037,3122
23.480,0.583,3122
23.484,1.048,3122
23.488,1.355,3122
23.492,1.490,3134
23.496,1.425,3134
23.500,1.177,3134
23.504,0.772,3134
23.508,0.275,3134
23.512,-0.253,3134
23.516,-0.823,3134
23.520,-1.883,3134
23.524,-2.125,3134
23.528,-2.250,3127
23.532,-2.180,3127
23.536,-1.942,3127
23.540,-1.540,3127
23.544,-1.035,3127
23.548,-0.507,3127
23.552,0.062,3127
23.556,0.608,3127
23.560,1.073,3127
23.564,1.390,3127
23.568,1.518,3135
23.572,1.460,3135
23.576,1.208,3135
23.580,0.797,3135
23.584,0.307,3135
23.588,-0.220,3135
23.592,-0.782,3135
23.596,-1.347,3135
23.600,-2.147,3135
23.604,-2.243,3146
23.608,-2.172,3146
23.612,-1.938,3146
23.616,-1.532,3146
23.620,-1.022,3146
23.624,-0.500,3146
23.628,0.065,3146
23.632,0.618,3146
23.636,1.133,3146
23.640,1.390,3146
23.644,1.502,3103
23.648,1.435,3103
23.652,1.180,3103
23.656,0.777,3103
23.660,0.260,3103
23.664,-0.282,3103
23.668,-0.833,3103
23.672,-1.387,3103
23.676,-1.855,3103
23.680,-2.260,3136
23.684,-1.927,3136
23.688,-1.528,3136
23.692,-1.022,3136
23.696,-0.495,3136
23.700,0.070,3136
23.704,0.620,3136
23.708,1.093,3136
23.712,1.413,3136
23.716,1.532,3113
23.720,1.458,3113
23.724,1.198,3113
23.728,0.782,3113
23.732,0.290,3113
23.736,-0.253,3113
23.740,-0.825,3113
23.744,-1.383,3113
23.748,-1.853,3113
23.752,-2.150,3113
23.756,-2.268,3118
23.760,-1.893,3118
23.764,-1.550,3118
23.768,-1.042,3118
23.772,-0.512,3118
23.776,0.058,3118
23.780,0.610,3118
23.784,1.087,3118
23.788,1.400,3118
23.792,1.530,3130
23.796,1.462,3130
23.800,1.208,3130
23.804,0.787,3130
23.808,0.290,3130
23.812,-0.253,3130
23.816,-0.820,3130
23.820,-1.383,3130
23.824,-1.847,3130
23.828,-2.140,3130
23.832,-2.260,3131
23.836,-2.192,3131
23.840,-1.460,3131
23.844,-1.030,3131
23.848,-0.497,3131
23.852,0.070,3131
23.856,0.620,3131
23.860,1.093,3131
23.864,1.413,3131
23.868,1.525,3117
23.872,1.452,3117
23.876,1.183,3117
23.880,0.772,3117
23.884,0.268,3117
23.888,-0.263,3117
23.892,-0.833,3117
23.896,-1.390,3117
23.900,-1.857,3117
23.904,-2.150,3117
23.908,-2.272,3126
23.912,-2.215,3126
23.916,-1.972,3126
23.920,-0.973,3126
23.924,-0.485,3126
23.928,0.065,3126
23.932,0.615,3126
23.936,1.087,3126
23.940,1.407,3126
23.944,1.528,3118
23.948,1.455,3118
23.952,1.180,3118
23.956,0.767,3118
23.960,0.263,3118
23.964,-0.268,3118
23.968,-0.833,3118
23.972,-1.385,3118
23.976,-1.845,3118
23.980,-2.138,3118
23.984,-2.257,3127
23.988,-2.188,3127
23.992,-1.935,3127
23.996,-1.530,3127
24.000,-0.390,3127
24.004,0.100,3127
24.008,0.618,3127
24.012,1.077,3127
24.016,1.387,3127
24.020,1.502,3127
24.024,1.413,3121
24.028,1.147,3121
24.032,0.755,3121
24.036,0.268,3121
24.040,-0.258,3121
24.044,-0.823,3121
24.048,-1.387,3121
24.052,-1.847,3121
24.056,-2.132,3121
24.060,-2.250,3121
24.064,-2.183,3107
24.068,-1.940,3107
24.072,-1.542,3107
24.076,-1.050,3107
24.080,0.117,3107
24.084,0.578,3107
24.088,1.050,3107
24.092,1.355,3107
24.096,1.470,3107
24.100,1.407,3113
24.104,1.145,3113
24.108,0.740,3113
24.112,0.247,3113
24.116,-0.282,3113
24.120,-0.853,3113
24.124,-1.395,3113
24.128,-1.857,3113
24.132,-2.160,3113
24.136,-2.268,3113
24.140,-2.203,3117
24.144,-1.942,3117
24.148,-1.538,3117
24.152,-1.028,3117
24.156,-0.502,3117
24.160,0.703,3117
24.164,1.087,3117
24.168,1.390,3117
24.172,1.502,3117
24.176,1.433,3111
24.180,1.157,3111
24.184,0.743,3111
24.188,0.247,3111
24.192,-0.287,3111
24.196,-0.850,3111
24.200,-1.407,3111
24.204,-1.870,3111
24.208,-2.167,3111
24.212,-2.283,3111
24.216,-2.212,3109
24.220,-1.952,3109
24.224,-1.542,3109
24.228,-1.028,3109
24.232,-0.497,3109
24.236,0.070,3109
24.240,1.145,3109
24.244,1.397,3109
24.248,1.512,3109
24.252,1.438,3109
24.256,1.163,3109
24.260,0.752,3109
24.264,0.250,3109
24.268,-0.287,3109
24.272,-0.860,3109
24.276,-1.413,3109
24.280,-1.870,3109
24.284,-2.163,3109
24.288,-2.270,3109
24.292,-2.195,3102
24.296,-1.938,3102
24.300,-1.528,3102
24.304,-1.012,3102
24.308,-0.487,3102
24.312,0.087,3102
24.316,0.627,3102
24.320,1.430,3102
24.324,1.502,3102
24.328,1.427,3107
24.332,1.163,3107
24.336,0.743,3107
24.340,0.247,3107
24.344,-0.282,3107
24.348,-0.853,3107
24.352,-1.393,3107
24.356,-1.860,3107
24.360,-2.147,3107
24.364,-2.260,3107
24.368,-2.180,3126
24.372,-1.933,3126
24.376,-1.528,3126
24.380,-1.028,3126
24.384,-0.500,3126
24.388,0.060,3126
24.392,0.608,3126
24.396,1.067,3126
24.400,1.488,3126
24.404,1.413,3074
24.408,1.147,3074
24.412,0.713,3074
24.416,0.245,3074
24.420,-0.285,3074
24.424,-0.850,3074
24.428,-1.393,3074
24.432,-1.853,3074
24.436,-2.143,3074
24.440,-2.248,3074
24.444,-2.178,3119
24.448,-1.905,3119
24.452,-1.502,3119
24.456,-0.988,3119
24.460,-0.453,3119
24.464,0.110,3119
24.468,0.662,3119
24.472,1.113,3119
24.476,1.417,3119
24.480,1.427,3130
24.484,0.777,3130
24.488,0.273,3130
24.492,-0.253,3130
24.496,-0.818,3130
24.500,-1.367,3130
24.504,-1.823,3130
24.508,-2.123,3130
24.512,-2.223,3130
24.516,-2.163,3122
24.520,-1.903,3122
24.524,-1.502,3122
24.528,-1.000,3122
24.532,-0.460,3122
24.536,0.098,3122
24.540,0.652,3122
24.544,1.103,3122
24.548,1.410,3122
24.552,1.528,3122
24.556,1.460,3138
24.560,0.632,3138
24.564,0.177,3138
24.568,-0.287,3138
24.572,-0.843,3138
24.576,-1.387,3138
24.580,-1.850,3138
24.584,-2.143,3138
24.588,-2.257,3138
24.592,-2.178,3140
24.596,-1.923,3140
24.600,-1.505,3140
24.604,-1.002,3140
24.608,-0.463,3140
24.612,0.092,3140
24.616,0.632,3140
24.620,1.107,3140
24.624,1.413,3140
24.628,1.518,3140
24.632,1.455,3126
24.636,1.177,3126
24.640,0.188,3126
24.644,-0.258,3126
24.648,-0.825,3126
24.652,-1.377,3126
24.656,-1.847,3126
24.660,-2.130,3126
24.664,-2.248,3126
24.668,-2.178,3130
24.672,-1.927,3130
24.676,-1.512,3130
24.680,-1.015,3130
24.684,-0.492,3130
24.688,0.070,3130
24.692,0.618,3130
24.696,1.073,3130
24.700,1.383,3130
24.704,1.498,3130
24.708,1.417,3128
24.712,1.137,3128
24.716,0.728,3128
24.720,-0.395,3128
24.724,-0.868,3128
24.728,-1.420,3128
24.732,-1.867,3128
24.736,-2.152,3128
24.740,-2.268,3128
24.744,-2.188,3149
24.748,-1.940,3149
24.752,-1.530,3149
24.756,-1.022,3149
24.760,-0.495,3149
24.764,0.072,3149
24.768,0.623,3149
24.772,1.095,3149
24.776,1.397,3149
24.780,1.518,3149
24.784,1.460,3121
24.788,1.177,3121
24.792,0.772,3121
24.796,0.268,3121
24.800,-0.927,3121
24.804,-1.383,3121
24.808,-1.847,3121
24.812,-2.135,3121
24.816,-2.243,3121
24.820,-2.167,3125
24.824,-1.903,3125
24.828,-1.502,3125
24.832,-0.983,3125
24.836,-0.463,3125
24.840,0.092,3125
24.844,0.627,3125
24.848,1.087,3125
24.852,1.383,3125
24.856,1.495,3125
24.860,1.413,3130
24.864,1.137,3130
24.868,0.718,3130
24.872,0.217,3130
24.876,-0.307,3130
24.880,-1.520,3130
24.884,-1.897,3130
24.888,-2.167,3130
24.892,-2.263,3130
24.896,-2.180,3127
24.900,-1.905,3127
24.904,-1.502,3127
24.908,-1.002,3127
24.912,-0.463,3127
24.916,0.080,3127
24.920,0.627,3127
24.924,1.093,3127
24.928,1.387,3127
24.932,1.502,3127
24.936,1.423,3128
24.940,1.143,3128
24.944,0.728,3128
24.948,0.223,3128
24.952,-0.323,3128
24.956,-0.887,3128
24.960,-1.960,3128
24.964,-2.178,3128
24.968,-2.288,3128
24.972,-2.197,3133
24.976,-1.933,3133
24.980,-1.522,3133
24.984,-1.002,3133
24.988,-0.450,3133
24.992,0.110,3133
24.996,0.662,3133
25.000,1.113,3133
25.004,1.407,3133
25.008,1.512,3133
25.012,1.433,3113
25.016,1.153,3113
25.020,0.745,3113
25.024,0.247,3113
25.028,-0.285,3113
25.032,-0.858,3113
25.036,-1.407,3113
25.040,-2.183,3113
25.044,-2.263,3113
25.048,-2.188,3113
25.052,-1.940,3117
25.056,-1.528,3117
25.060,-1.028,3117
25.064,-0.500,3117
25.068,0.072,3117
25.072,0.623,3117
25.076,1.100,3117
25.080,1.397,3117
25.084,1.535,3117
25.088,1.465,3117
25.092,1.208,3118
25.096,0.780,3118
25.100,0.287,3118
25.104,-0.250,3118
25.108,-0.825,3118
25.112,-1.383,3118
25.116,-1.850,3118
25.120,-2.283,3118
25.124,-2.167,3125
25.128,-1.923,3125
25.132,-1.522,3125
25.136,-1.012,3125
25.140,-0.487,3125
25.144,0.077,3125
25.148,0.623,3125
25.152,1.093,3125
25.156,1.397,3125
25.160,1.528,3125
25.164,1.452,3125
25.168,1.177,3117
25.172,0.748,3117
25.176,0.253,3117
25.180,-0.290,3117
25.184,-0.858,3117
25.188,-1.417,3117
25.192,-1.893,3117
25.196,-2.165,3117
25.200,-2.147,3105
25.204,-1.468,3105
25.208,-0.932,3105
25.212,-0.435,3105
25.216,0.102,3105
25.220,0.635,3105
25.224,1.103,3105
25.228,1.410,3105
25.232,1.515,3105
25.236,1.450,3105
25.240,1.173,3155
25.244,0.752,3155
25.248,0.258,3155
25.252,-0.273,3155
25.256,-0.853,3155
25.260,-1.397,3155
25.264,-1.857,3155
25.268,-2.147,3155
25.272,-2.257,3155
25.276,-2.178,3155
25.280,-1.407,3119
25.284,-0.432,3119
25.288,0.117,3119
25.292,0.667,3119
25.296,1.117,3119
25.300,1.417,3119
25.304,1.530,3119
25.308,1.460,3119
25.312,1.188,3110
25.316,0.755,3110
25.320,0.260,3110
25.324,-0.268,3110
25.328,-0.845,3110
25.332,-1.393,3110
25.336,-1.857,3110
25.340,-2.147,3110
25.344,-2.257,3110
25.348,-2.188,3110
25.352,-1.933,3098
25.356,-1.522,3098
25.360,-0.398,3098
25.364,0.115,3098
25.368,0.627,3098
25.372,1.087,3098
25.376,1.387,3098
25.380,1.500,3098
25.384,1.417,3098
25.388,1.150,3110
25.392,0.718,3110
25.396,0.228,3110
25.400,-0.302,3110
25.404,-0.865,3110
25.408,-1.417,3110
25.412,-1.873,3110
25.416,-2.150,3110
25.420,-2.257,3110
25.424,-2.170,3110
25.428,-1.903,3125
25.432,-1.482,3125
25.436,-0.978,3125
25.440,0.233,3125
25.444,0.662,3125
25.448,1.117,3125
25.452,1.397,3125
25.456,1.502,3125
25.460,1.397,3125
25.464,1.150,3124
25.468,0.718,3124
25.472,0.223,3124
25.476,-0.295,3124
25.480,-0.863,3124
25.484,-1.407,3124
25.488,-1.863,3124
25.492,-2.145,3124
25.496,-2.252,3124
25.500,-2.167,3124
25.504,-1.903,3115
25.508,-1.488,3115
25.512,-0.988,3115
25.516,-0.455,3115
25.520,0.733,3115
25.524,1.107,3115
25.528,1.407,3115
25.532,1.512,3115
25.536,1.430,3115
25.540,1.157,3114
25.544,0.738,3114
25.548,0.233,3114
25.552,-0.292,3114
25.556,-0.863,3114
25.560,-1.417,3114
25.564,-1.867,3114
25.568,-2.163,3114
25.572,-2.268,3114
25.576,-2.183,3114
25.580,-1.935,3088
25.584,-1.502,3088
25.588,-1.002,3088
25.592,-0.458,3088
25.596,0.102,3088
25.600,1.173,3088
25.604,1.417,3088
25.608,1.498,3088
25.612,1.420,3088
25.616,1.143,3145
25.620,0.743,3145
25.624,0.237,3145
25.628,-0.330,3145
25.632,-0.892,3145
25.636,-1.427,3145
25.640,-1.907,3145
25.644,-2.152,3145
25.648,-2.252,3145
25.652,-2.172,3145
25.656,-1.897,3105
25.660,-1.468,3105
25.664,-0.948,3105
25.668,-0.427,3105
25.672,0.113,3105
25.676,0.657,3105
25.680,1.438,3105
25.684,1.528,3105
25.688,1.430,3105
25.692,1.167,3163
25.696,0.733,3163
25.700,0.237,3163
25.704,-0.292,3163
25.708,-0.863,3163
25.712,-1.420,3163
25.716,-1.870,3163
25.720,-2.155,3163
25.724,-2.263,3163
25.728,-2.183,3163
25.732,-1.927,3135
25.736,-1.492,3135
25.740,-0.990,3135
25.744,-0.450,3135
25.748,0.113,3135
25.752,0.660,3135
25.756,1.110,3135
25.760,1.498,3135
25.764,1.407,3135
25.768,1.117,3131
25.772,0.695,3131
25.776,0.193,3131
25.780,-0.345,3131
25.784,-0.892,3131
25.788,-1.452,3131
25.792,-1.895,3131
25.796,-2.178,3131
25.800,-2.272,3131
25.804,-2.185,3131
25.808,-1.910,3133
25.812,-1.495,3133
25.816,-1.000,3133
25.820,-0.468,3133
25.824,0.100,3133
25.828,0.637,3133
25.832,1.103,3133
25.836,1.393,3133
25.840,1.387,3133
25.844,1.147,3136
25.848,0.713,3136
25.852,0.212,3136
25.856,-0.333,3136
25.860,-0.897,3136
25.864,-1.468,3136
25.868,-1.927,3136
25.872,-2.192,3136
25.876,-2.297,3136
25.880,-2.212,3136
25.884,-1.952,3135
25.888,-1.530,3135
25.892,-1.018,3135
25.896,-0.487,3135
25.900,0.098,3135
25.904,0.637,3135
25.908,1.107,3135
25.912,1.417,3135
25.916,1.532,3135
25.920,1.113,3143
25.924,0.250,3143
25.928,-0.287,3143
25.932,-0.860,3143
25.936,-1.410,3143
25.940,-1.870,3143
25.944,-2.167,3143
25.948,-2.268,3143
25.952,-2.178,3143
25.956,-1.923,3111
25.960,-1.472,3111
25.964,-0.985,3111
25.968,-0.458,3111
25.972,0.107,3111
25.976,0.657,3111
25.980,1.117,3111
25.984,1.415,3111
25.988,1.522,3111
25.992,1.430,3111
25.996,1.170,3117
26.000,0.130,3117
26.004,-0.352,3117
26.008,-0.932,3117
26.012,-1.450,3117
26.016,-1.905,3117
26.020,-2.185,3117
26.024,-2.265,3117
26.028,-2.170,3117
26.032,-1.907,3119
26.036,-1.488,3119
26.040,-0.988,3119
26.044,-0.393,3119
26.048,0.138,3119
26.052,0.657,3119
26.056,1.103,3119
26.060,1.397,3119
26.064,1.500,3119
26.068,1.427,3119
26.072,1.157,3122
26.076,0.718,3122
26.080,-0.407,3122
26.084,-0.892,3122
26.088,-1.417,3122
26.092,-1.870,3122
26.096,-2.147,3122
26.100,-2.250,3122
26.104,-2.163,3122
26.108,-1.893,3122
26.112,-1.492,3126
26.116,-0.968,3126
26.120,-0.427,3126
26.124,0.133,3126
26.128,0.688,3126
26.132,1.143,3126
26.136,1.433,3126
26.140,1.542,3126
26.144,1.460,3126
26.148,1.183,3126
26.152,0.760,3125
26.156,0.253,3125
26.160,-0.943,3125
26.164,-1.423,3125
26.168,-1.885,3125
26.172,-2.143,3125
26.176,-2.252,3125
26.180,-2.163,3125
26.184,-1.897,3125
26.188,-1.482,3118
26.192,-0.963,3118
26.196,-0.425,3118
26.200,0.117,3118
26.204,0.667,3118
26.208,1.115,3118
26.212,1.413,3118
26.216,1.522,3118
26.220,1.433,3118
26.224,1.153,3118
26.228,0.733,3102
26.232,0.223,3102
26.236,-0.323,3102
26.240,-1.510,3102
26.244,-1.887,3102
26.248,-2.152,3102
26.252,-2.255,3102
26.256,-2.163,3102
26.260,-1.883,3102
26.264,-1.462,3114
26.268,-0.935,3114
26.272,-0.407,3114
26.276,0.152,3114
26.280,0.693,3114
26.284,1.140,3114
26.288,1.423,3114
26.292,1.508,3114
26.296,1.417,3114
26.300,1.137,3114
26.304,0.708,3078
26.308,0.188,3078
26.312,-0.350,3078
26.316,-0.915,3078
26.320,-1.962,3078
26.324,-2.183,3078
26.328,-2.263,3078
26.332,-2.175,3078
26.336,-1.895,3078
26.340,-1.468,3094
26.344,-0.935,3094
26.348,-0.383,3094
26.352,0.140,3094
26.356,0.677,3094
26.360,1.117,3094
26.364,1.417,3094
26.368,1.510,3094
