Czas_Wzgledny(s),EKG_Surowe(mV),PPG_Surowe(ADC)
0.000,0.098,3122
0.002,0.425,3122
0.004,0.765,3122
0.006,0.980,3122
0.008,1.060,3125
0.010,0.993,3125
0.012,0.772,3125
0.014,0.460,3125
0.016,0.077,3125
0.018,-0.347,3125
0.020,-0.780,3125
0.022,-1.202,3125
0.024,-1.548,3125
0.026,-1.772,3125
0.028,-1.857,3086
0.030,-1.805,3086
0.032,-1.603,3086
0.034,-1.262,3086
0.036,-0.865,3086
0.038,-0.448,3086
0.040,0.468,3086
0.042,0.752,3086
0.044,0.975,3086
0.046,1.065,3119
0.048,1.008,3119
0.050,0.812,3119
0.052,0.472,3119
0.054,0.092,3119
0.056,-0.338,3119
0.058,-0.777,3119
0.060,-1.202,3119
0.062,-1.545,3119
0.064,-1.770,3119
0.066,-1.853,3134
0.068,-1.788,3134
0.070,-1.583,3134
0.072,-1.252,3134
0.074,-0.863,3134
0.076,-0.432,3134
0.078,-0.007,3134
0.080,0.812,3134
0.082,0.983,3134
0.084,1.062,3134
0.086,0.998,3134
0.088,0.787,3134
0.090,0.468,3134
0.092,0.077,3134
0.094,-0.330,3134
0.096,-0.765,3134
0.098,-1.177,3134
0.100,-1.522,3134
0.102,-1.738,3134
0.104,-1.827,3143
0.106,-1.778,3143
0.108,-1.577,3143
0.110,-1.252,3143
0.112,-0.868,3143
0.114,-0.453,3143
0.116,-0.020,3143
0.118,0.398,3143
0.120,0.990,3143
0.122,1.060,3140
0.124,1.012,3140
0.126,0.820,3140
0.128,0.502,3140
0.130,0.113,3140
0.132,-0.302,3140
0.134,-0.738,3140
0.136,-1.163,3140
0.138,-1.502,3140
0.140,-1.722,3140
0.142,-1.810,3086
0.144,-1.760,3086
0.146,-1.552,3086
0.148,-1.225,3086
0.150,-0.843,3086
0.152,-0.420,3086
0.154,0.018,3086
0.156,0.417,3086
0.158,0.752,3086
0.160,1.058,3124
0.162,0.792,3124
0.164,0.472,3124
0.166,0.092,3124
0.168,-0.343,3124
0.170,-0.772,3124
0.172,-1.183,3124
0.174,-1.528,3124
0.176,-1.738,3124
0.178,-1.827,3132
0.180,-1.772,3132
0.182,-1.573,3132
0.184,-1.250,3132
0.186,-0.863,3132
0.188,-0.445,3132
0.190,-0.013,3132
0.192,0.407,3132
0.194,0.752,3132
0.196,0.993,3132
0.198,1.075,3137
0.200,0.775,3137
0.202,0.510,3137
0.204,0.128,3137
0.206,-0.370,3137
0.208,-0.728,3137
0.210,-1.140,3137
0.212,-1.492,3137
0.214,-1.702,3137
0.216,-1.802,3127
0.218,-1.742,3127
0.220,-1.552,3127
0.222,-1.238,3127
0.224,-0.860,3127
0.226,-0.432,3127
0.228,-0.007,3127
0.230,0.417,3127
0.232,0.767,3127
0.234,0.993,3127
0.236,1.077,3133
0.238,1.018,3133
0.240,0.427,3133
0.242,0.100,3133
0.244,-0.330,3133
0.246,-0.762,3133
0.248,-1.185,3133
0.250,-1.532,3133
0.252,-1.745,3133
0.254,-1.833,3124
0.256,-1.782,3124
0.258,-1.573,3124
0.260,-1.245,3124
0.262,-0.853,3124
0.264,-0.427,3124
0.266,-0.013,3124
0.268,0.410,3124
0.270,0.743,3124
0.272,0.973,3124
0.274,1.065,3118
0.276,1.008,3118
0.278,0.797,3118
0.280,0.022,3118
0.282,-0.362,3118
0.284,-0.785,3118
0.286,-1.183,3118
0.288,-1.528,3118
0.290,-1.740,3118
0.292,-1.843,3127
0.294,-1.780,3127
0.296,-1.577,3127
0.298,-1.255,3127
0.300,-0.865,3127
0.302,-0.450,3127
0.304,-0.028,3127
0.306,0.398,3127
0.308,0.743,3127
0.310,0.978,3127
0.312,1.060,3116
0.314,1.002,3116
0.316,0.792,3116
0.318,0.475,3116
0.320,-0.403,3116
0.322,-0.755,3116
0.324,-1.175,3116
0.326,-1.528,3116
0.328,-1.732,3116
0.330,-1.823,3116
0.332,-1.780,3119
0.334,-1.573,3119
0.336,-1.252,3119
0.338,-0.868,3119
0.340,-0.453,3119
0.342,-0.018,3119
0.344,0.398,3119
0.346,0.743,3119
0.348,0.980,3119
0.350,1.062,3119
0.352,0.998,3117
0.354,0.790,3117
0.356,0.468,3117
0.358,0.075,3117
0.360,-0.860,3117
0.362,-1.202,3117
0.364,-1.548,3117
0.366,-1.768,3117
0.368,-1.857,3117
0.370,-1.792,3104
0.372,-1.585,3104
0.374,-1.260,3104
0.376,-0.868,3104
0.378,-0.450,3104
0.380,-0.010,3104
0.382,0.422,3104
0.384,0.767,3104
0.386,1.002,3104
0.388,1.087,3104
0.390,1.015,3107
0.392,0.797,3107
0.394,0.477,3107
0.396,0.087,3107
0.398,-0.350,3107
0.400,-1.337,3107
0.402,-1.573,3107
0.404,-1.790,3107
0.406,-1.873,3107
0.408,-1.815,3108
0.410,-1.617,3108
0.412,-1.295,3108
0.414,-0.887,3108
0.416,-0.453,3108
0.418,-0.013,3108
0.420,0.422,3108
0.422,0.772,3108
0.424,0.993,3108
0.426,1.070,3108
0.428,1.015,3111
0.430,0.787,3111
0.432,0.463,3111
0.434,0.068,3111
0.436,-0.362,3111
0.438,-0.802,3111
0.440,-1.600,3111
0.442,-1.785,3111
0.444,-1.850,3111
0.446,-1.788,3114
0.448,-1.575,3114
0.450,-1.252,3114
0.452,-0.853,3114
0.454,-0.432,3114
0.456,-0.007,3114
0.458,0.417,3114
0.460,0.760,3114
0.462,0.985,3114
0.464,1.077,3114
0.466,1.025,3106
0.468,0.823,3106
0.470,0.502,3106
0.472,0.107,3106
0.474,-0.325,3106
0.476,-0.748,3106
0.478,-1.167,3106
0.480,-1.775,3106
0.482,-1.827,3106
0.484,-1.765,3131
0.486,-1.562,3131
0.488,-1.238,3131
0.490,-0.853,3131
0.492,-0.422,3131
0.494,0.018,3131
0.496,0.427,3131
0.498,0.777,3131
0.500,1.008,3131
0.502,1.093,3131
0.504,1.035,3115
0.506,0.828,3115
0.508,0.502,3115
0.510,0.102,3115
0.512,-0.343,3115
0.514,-0.777,3115
0.516,-1.208,3115
0.518,-1.562,3115
0.520,-1.857,3101
0.522,-1.583,3101
0.524,-1.292,3101
0.526,-0.843,3101
0.528,-0.445,3101
0.530,-0.015,3101
0.532,0.417,3101
0.534,0.772,3101
0.536,1.010,3101
0.538,1.097,3101
0.540,1.048,3078
0.542,0.845,3078
0.544,0.522,3078
0.546,0.110,3078
0.548,-0.323,3078
0.550,-0.762,3078
0.552,-1.177,3078
0.554,-1.532,3078
0.556,-1.748,3078
0.558,-1.847,3078
0.560,-1.560,3129
0.562,-0.855,3129
0.564,-0.415,3129
0.566,0.022,3129
0.568,0.427,3129
0.570,0.745,3129
0.572,0.983,3129
0.574,1.070,3129
0.576,1.020,3135
0.578,0.820,3135
0.580,0.500,3135
0.582,0.098,3135
0.584,-0.305,3135
0.586,-0.743,3135
0.588,-1.160,3135
0.590,-1.508,3135
0.592,-1.732,3135
0.594,-1.830,3135
0.596,-1.780,3114
0.598,-1.570,3114
0.600,-0.777,3114
0.602,-0.352,3114
0.604,0.022,3114
0.606,0.468,3114
0.608,0.785,3114
0.610,1.018,3114
0.612,1.103,3114
0.614,1.052,3139
0.616,0.848,3139
0.618,0.532,3139
0.620,0.133,3139
0.622,-0.290,3139
0.624,-0.738,3139
0.626,-1.150,3139
0.628,-1.505,3139
0.630,-1.722,3139
0.632,-1.817,3139
0.634,-1.772,3136
0.636,-1.567,3136
0.638,-1.252,3136
0.640,-0.375,3136
0.642,-0.013,3136
0.644,0.417,3136
0.646,0.767,3136
0.648,0.993,3136
0.650,1.077,3136
0.652,1.028,3129
0.654,0.838,3129
0.656,0.517,3129
0.658,0.117,3129
0.660,-0.325,3129
0.662,-0.752,3129
0.664,-1.175,3129
0.666,-1.528,3129
0.668,-1.732,3129
0.670,-1.823,3129
0.672,-1.768,3138
0.674,-1.562,3138
0.676,-1.238,3138
0.678,-0.853,3138
0.680,0.087,3138
0.682,0.430,3138
0.684,0.777,3138
0.686,0.993,3138
0.688,1.077,3138
0.690,1.022,3093
0.692,0.820,3093
0.694,0.502,3093
0.696,0.102,3093
0.698,-0.333,3093
0.700,-0.767,3093
0.702,-1.183,3093
0.704,-1.538,3093
0.706,-1.772,3093
0.708,-1.857,3093
0.710,-1.808,3121
0.712,-1.617,3121
0.714,-1.300,3121
0.716,-0.902,3121
0.718,-0.482,3121
0.720,0.453,3121
0.722,0.990,3121
0.724,1.077,3121
0.726,1.038,3116
0.728,0.838,3116
0.730,0.537,3116
0.732,0.150,3116
0.734,-0.273,3116
0.736,-0.710,3116
0.738,-1.133,3116
0.740,-1.472,3116
0.742,-1.698,3116
0.744,-1.790,3116
0.746,-1.748,3137
0.748,-1.575,3137
0.750,-1.258,3137
0.752,-0.887,3137
0.754,-0.482,3137
0.756,-0.043,3137
0.758,0.393,3137
0.760,1.020,3137
0.762,1.103,3137
0.764,1.060,3124
0.766,0.875,3124
0.768,0.552,3124
0.770,0.175,3124
0.772,-0.253,3124
0.774,-0.710,3124
0.776,-1.107,3124
0.778,-1.472,3124
0.780,-1.708,3124
0.782,-1.820,3124
0.784,-1.792,3133
0.786,-1.607,3133
0.788,-1.308,3133
0.790,-0.925,3133
0.792,-0.505,3133
0.794,-0.083,3133
0.796,0.350,3133
0.798,0.718,3133
0.800,1.067,3133
0.802,1.028,3129
0.804,0.825,3129
0.806,0.537,3129
0.808,0.150,3129
0.810,-0.263,3129
0.812,-0.698,3129
0.814,-1.123,3129
0.816,-1.495,3129
0.818,-1.738,3129
0.820,-1.855,3129
0.822,-1.825,3136
0.824,-1.650,3136
0.826,-1.353,3136
0.828,-0.968,3136
0.830,-0.540,3136
0.832,-0.102,3136
0.834,0.318,3136
0.836,0.690,3136
0.838,0.930,3136
0.840,0.988,3111
0.842,0.500,3111
0.844,0.150,3111
0.846,-0.253,3111
0.848,-0.690,3111
0.850,-1.095,3111
0.852,-1.462,3111
0.854,-1.695,3111
0.856,-1.812,3111
0.858,-1.778,3111
0.860,-1.613,3146
0.862,-1.308,3146
0.864,-0.927,3146
0.866,-0.527,3146
0.868,-0.095,3146
0.870,0.312,3146
0.872,0.672,3146
0.874,0.910,3146
0.876,1.028,3146
0.878,0.995,3146
0.880,0.453,3106
0.882,-0.273,3106
0.884,-0.708,3106
0.886,-1.107,3106
0.888,-1.488,3106
0.890,-1.725,3106
0.892,-1.830,3106
0.894,-1.808,3106
0.896,-1.627,3110
0.898,-1.327,3110
0.900,-0.948,3110
0.902,-0.537,3110
0.904,-0.107,3110
0.906,0.307,3110
0.908,0.672,3110
0.910,0.915,3110
0.912,1.032,3110
0.914,1.005,3110
0.916,0.823,3111
0.918,0.515,3111
0.920,-0.362,3111
0.922,-0.710,3111
0.924,-1.133,3111
0.926,-1.492,3111
0.928,-1.730,3111
0.930,-1.840,3111
0.932,-1.808,3111
0.934,-1.627,3097
0.936,-1.323,3097
0.938,-0.932,3097
0.940,-0.522,3097
0.942,-0.092,3097
0.944,0.338,3097
0.946,0.690,3097
0.948,0.932,3097
0.950,1.038,3097
0.952,1.015,3097
0.954,0.848,3104
0.956,0.537,3104
0.958,0.155,3104
0.960,-0.762,3104
0.962,-1.103,3104
0.964,-1.500,3104
0.966,-1.712,3104
0.968,-1.823,3104
0.970,-1.808,3104
0.972,-1.635,3108
0.974,-1.333,3108
0.976,-0.938,3108
0.978,-0.547,3108
0.980,-0.113,3108
0.982,0.297,3108
0.984,0.662,3108
0.986,0.897,3108
0.988,1.015,3108
0.990,0.983,3108
0.992,0.797,3115
0.994,0.497,3115
0.996,0.117,3115
0.998,-0.297,3115
1.000,-1.202,3115
1.002,-1.498,3115
1.004,-1.728,3115
1.006,-1.833,3115
1.008,-1.792,3115
1.010,-1.623,3124
1.012,-1.308,3124
1.014,-0.917,3124
1.016,-0.512,3124
1.018,-0.087,3124
1.020,0.343,3124
1.022,0.700,3124
1.024,0.938,3124
1.026,1.055,3124
1.028,1.025,3124
1.030,0.855,3100
1.032,0.550,3100
1.034,0.188,3100
1.036,-0.228,3100
1.038,-0.662,3100
1.040,-1.502,3100
1.042,-1.827,3100
1.044,-1.810,3100
1.046,-1.643,3107
1.048,-1.333,3107
1.050,-0.943,3107
1.052,-0.532,3107
1.054,-0.107,3107
1.056,0.310,3107
1.058,0.677,3107
1.060,0.927,3107
1.062,1.035,3107
1.064,1.018,3107
1.066,0.848,3137
1.068,0.537,3137
1.070,0.158,3137
1.072,-0.247,3137
1.074,-0.688,3137
1.076,-1.100,3137
1.078,-1.468,3137
1.080,-1.823,3137
1.082,-1.795,3137
1.084,-1.623,3128
1.086,-1.325,3128
1.088,-0.943,3128
1.090,-0.537,3128
1.092,-0.100,3128
1.094,0.333,3128
1.096,0.698,3128
1.098,0.943,3128
1.100,1.062,3128
1.102,1.035,3128
1.104,0.868,3107
1.106,0.573,3107
1.108,0.193,3107
1.110,-0.225,3107
1.112,-0.670,3107
1.114,-1.097,3107
1.116,-1.472,3107
1.118,-1.715,3107
1.120,-1.792,3107
1.122,-1.643,3155
1.124,-1.337,3155
1.126,-0.948,3155
1.128,-0.537,3155
1.130,-0.100,3155
1.132,0.333,3155
1.134,0.695,3155
1.136,0.938,3155
1.138,1.050,3155
1.140,1.028,3155
1.142,0.855,3124
1.144,0.550,3124
1.146,0.188,3124
1.148,-0.225,3124
1.150,-0.660,3124
1.152,-1.083,3124
1.154,-1.442,3124
1.156,-1.673,3124
1.158,-1.788,3124
1.160,-1.545,3117
1.162,-0.907,3117
1.164,-0.512,3117
1.166,-0.098,3117
1.168,0.333,3117
1.170,0.693,3117
1.172,0.932,3117
1.174,1.052,3117
1.176,1.032,3117
1.178,0.873,3115
1.180,0.578,3115
1.182,0.198,3115
1.184,-0.220,3115
1.186,-0.652,3115
1.188,-1.067,3115
1.190,-1.423,3115
1.192,-1.673,3115
1.194,-1.802,3115
1.196,-1.782,3115
1.198,-1.613,3132
1.200,-0.887,3132
1.202,-0.545,3132
1.204,-0.113,3132
1.206,0.307,3132
1.208,0.677,3132
1.210,0.927,3132
1.212,1.052,3132
1.214,1.035,3132
1.216,0.863,3122
1.218,0.557,3122
1.220,0.193,3122
1.222,-0.223,3122
1.224,-0.657,3122
1.226,-1.067,3122
1.228,-1.448,3122
1.230,-1.688,3122
1.232,-1.812,3122
1.234,-1.780,3122
1.236,-1.615,3148
1.238,-1.327,3148
1.240,-0.485,3148
1.242,-0.095,3148
1.244,0.347,3148
1.246,0.667,3148
1.248,0.907,3148
1.250,1.032,3148
1.252,1.018,3148
1.254,0.853,3123
1.256,0.547,3123
1.258,0.172,3123
1.260,-0.242,3123
1.262,-0.667,3123
1.264,-1.073,3123
1.266,-1.445,3123
1.268,-1.688,3123
1.270,-1.805,3123
1.272,-1.778,3123
1.274,-1.615,3119
1.276,-1.312,3119
1.278,-0.927,3119
1.280,-0.022,3119
1.282,0.333,3119
1.284,0.690,3119
1.286,0.940,3119
1.288,1.062,3119
1.290,1.038,3119
1.292,0.873,3116
1.294,0.573,3116
1.296,0.193,3116
1.298,-0.220,3116
1.300,-0.655,3116
1.302,-1.073,3116
1.304,-1.448,3116
1.306,-1.700,3116
1.308,-1.817,3116
1.310,-1.802,3116
1.312,-1.633,3120
1.314,-1.343,3120
1.316,-0.968,3120
1.318,-0.552,3120
1.320,0.372,3120
1.322,0.718,3120
1.324,0.927,3120
1.326,1.050,3120
1.328,1.022,3120
1.330,0.858,3105
1.332,0.542,3105
1.334,0.175,3105
1.336,-0.242,3105
1.338,-0.667,3105
1.340,-1.090,3105
1.342,-1.452,3105
1.344,-1.692,3105
1.346,-1.815,3105
1.348,-1.788,3105
1.350,-1.617,3105
1.352,-1.310,3103
1.354,-0.945,3103
1.356,-0.537,3103
1.358,-0.113,3103
1.360,0.718,3103
1.362,0.950,3103
1.364,1.038,3103
1.366,1.032,3103
1.368,0.860,3103
1.370,0.562,3114
1.372,0.170,3114
1.374,-0.242,3114
1.376,-0.670,3114
1.378,-1.093,3114
1.380,-1.468,3114
1.382,-1.712,3114
1.384,-1.830,3114
1.386,-1.812,3114
1.388,-1.653,3114
1.390,-1.363,3119
1.392,-0.965,3119
1.394,-0.550,3119
1.396,-0.125,3119
1.398,0.302,3119
1.400,0.953,3119
1.402,1.062,3119
1.404,1.048,3119
1.406,0.823,3099
1.408,0.177,3099
1.410,-0.203,3099
1.412,-0.645,3099
1.414,-1.065,3099
1.416,-1.448,3099
1.418,-1.698,3099
1.420,-1.823,3099
1.422,-1.808,3099
1.424,-1.643,3099
1.426,-1.343,3087
1.428,-0.945,3087
1.430,-0.540,3087
1.432,-0.113,3087
1.434,0.318,3087
1.436,0.688,3087
1.438,0.938,3087
1.440,1.030,3087
1.442,0.870,3087
1.444,0.580,3109
1.446,0.205,3109
1.448,-0.205,3109
1.450,-0.627,3109
1.452,-1.058,3109
1.454,-1.427,3109
1.456,-1.688,3109
1.458,-1.810,3109
1.460,-1.792,3109
1.462,-1.630,3109
1.464,-1.347,3118
1.466,-0.968,3118
1.468,-0.560,3118
1.470,-0.125,3118
1.472,0.302,3118
1.474,0.682,3118
1.476,0.938,3118
1.478,1.062,3118
1.480,0.850,3120
1.482,0.172,3120
1.484,-0.212,3120
1.486,-0.698,3120
1.488,-1.067,3120
1.490,-1.427,3120
1.492,-1.692,3120
1.494,-1.812,3120
1.496,-1.805,3120
1.498,-1.645,3120
1.500,-1.347,3130
1.502,-0.968,3130
1.504,-0.542,3130
1.506,-0.113,3130
1.508,0.307,3130
1.510,0.688,3130
1.512,0.930,3130
1.514,1.052,3130
1.516,1.032,3130
1.518,0.863,3130
1.520,0.128,3113
1.522,-0.670,3113
1.524,-1.087,3113
1.526,-1.468,3113
1.528,-1.708,3113
1.530,-1.827,3113
1.532,-1.810,3113
1.534,-1.645,3113
1.536,-1.347,3113
1.538,-0.970,3113
1.540,-0.545,3113
1.542,-0.087,3113
1.544,0.318,3113
1.546,0.698,3113
1.548,0.950,3113
1.550,1.077,3113
1.552,1.067,3113
1.554,0.902,3113
1.556,0.618,3122
1.558,0.235,3122
1.560,-0.682,3122
1.562,-1.035,3122
1.564,-1.417,3122
1.566,-1.683,3122
1.568,-1.820,3122
1.570,-1.817,3122
1.572,-1.660,3122
1.574,-1.373,3121
1.576,-1.002,3121
1.578,-0.583,3121
1.580,-0.142,3121
1.582,0.287,3121
1.584,0.662,3121
1.586,0.917,3121
1.588,1.060,3121
1.590,1.052,3121
1.592,0.897,3121
1.594,0.598,3125
1.596,0.133,3125
1.598,-0.188,3125
1.600,-1.105,3125
1.602,-1.420,3125
1.604,-1.673,3125
1.606,-1.808,3125
1.608,-1.792,3125
1.610,-1.633,3125
1.612,-1.345,3128
1.614,-0.968,3128
1.616,-0.565,3128
1.618,-0.133,3128
1.620,0.302,3128
1.622,0.677,3128
1.624,0.950,3128
1.626,1.077,3128
1.628,1.067,3128
1.630,0.905,3128
1.632,0.618,3122
1.634,0.233,3122
1.636,-0.177,3122
1.638,-0.608,3122
1.640,-1.468,3122
1.642,-1.673,3122
1.644,-1.812,3122
1.646,-1.802,3122
1.648,-1.647,3122
1.650,-1.355,3133
1.652,-0.978,3133
1.654,-0.578,3133
1.656,-0.142,3133
1.658,0.273,3133
1.660,0.657,3133
1.662,0.907,3133
1.664,1.032,3133
1.666,1.028,3133
1.668,0.858,3133
1.670,0.578,3151
1.672,0.198,3151
1.674,-0.207,3151
1.676,-0.645,3151
1.678,-1.058,3151
1.680,-1.698,3151
1.682,-1.788,3151
1.684,-1.778,3151
1.686,-1.623,3151
1.688,-1.337,3134
1.690,-0.965,3134
1.692,-0.570,3134
1.694,-0.133,3134
1.696,0.285,3134
1.698,0.652,3134
1.700,0.907,3134
1.702,1.032,3134
1.704,1.018,3134
1.706,0.863,3134
1.708,0.578,3146
1.710,0.193,3146
1.712,-0.210,3146
1.714,-0.640,3146
1.716,-1.062,3146
1.718,-1.423,3146
1.720,-1.820,3146
1.722,-1.847,3146
1.724,-1.577,3146
1.726,-1.333,3132
1.728,-0.983,3132
1.730,-0.575,3132
1.732,-0.163,3132
1.734,0.268,3132
1.736,0.657,3132
1.738,0.912,3132
1.740,1.040,3132
1.742,1.040,3132
1.744,0.897,3132
1.746,0.613,3111
1.748,0.225,3111
1.750,-0.177,3111
1.752,-0.598,3111
1.754,-1.025,3111
1.756,-1.407,3111
1.758,-1.673,3111
1.760,-1.778,3111
1.762,-1.633,3111
1.764,-1.353,3129
1.766,-0.983,3129
1.768,-0.578,3129
1.770,-0.147,3129
1.772,0.265,3129
1.774,0.635,3129
1.776,0.907,3129
1.778,1.030,3129
1.780,1.030,3129
1.782,0.870,3129
1.784,0.583,3113
1.786,0.212,3113
1.788,-0.195,3113
1.790,-0.613,3113
1.792,-1.035,3113
1.794,-1.407,3113
1.796,-1.663,3113
1.798,-1.792,3113
1.800,-1.577,3113
1.802,-1.340,3119
1.804,-0.973,3119
1.806,-0.575,3119
1.808,-0.163,3119
1.810,0.263,3119
1.812,0.632,3119
1.814,0.892,3119
1.816,1.018,3119
1.818,1.018,3119
1.820,0.863,3119
1.822,0.580,3130
1.824,0.198,3130
1.826,-0.205,3130
1.828,-0.642,3130
1.830,-1.050,3130
1.832,-1.417,3130
1.834,-1.673,3130
1.836,-1.815,3130
1.838,-1.808,3130
1.840,-1.310,3129
1.842,-0.583,3129
1.844,-0.168,3129
1.846,0.270,3129
1.848,0.657,3129
1.850,0.927,3129
1.852,1.062,3129
1.854,1.060,3129
1.856,0.907,3129
1.858,0.613,3129
1.860,0.247,3137
1.862,-0.177,3137
1.864,-0.608,3137
1.866,-1.038,3137
1.868,-1.423,3137
1.870,-1.692,3137
1.872,-1.823,3137
1.874,-1.817,3137
1.876,-1.657,3137
1.878,-1.377,3137
1.880,-0.520,3108
1.882,0.302,3108
1.884,0.620,3108
1.886,0.892,3108
1.888,1.020,3108
1.890,1.015,3108
1.892,0.818,3108
1.894,0.552,3107
1.896,0.217,3107
1.898,-0.190,3107
1.900,-0.618,3107
1.902,-1.048,3107
1.904,-1.417,3107
1.906,-1.688,3107
1.908,-1.815,3107
1.910,-1.817,3107
1.912,-1.657,3107
1.914,-1.377,3107
1.916,-1.002,3120
1.918,-0.583,3120
1.920,0.347,3120
1.922,0.667,3120
1.924,0.897,3120
1.926,1.038,3120
1.928,1.015,3120
1.930,0.885,3120
1.932,0.598,3120
1.934,0.230,3114
1.936,-0.185,3114
1.938,-0.655,3114
1.940,-1.048,3114
1.942,-1.415,3114
1.944,-1.673,3114
1.946,-1.812,3114
1.948,-1.815,3114
1.950,-1.663,3114
1.952,-1.383,3114
1.954,-1.012,3109
1.956,-0.593,3109
1.958,-0.172,3109
1.960,0.677,3109
1.962,0.897,3109
1.964,1.038,3109
1.966,1.048,3109
1.968,0.892,3109
1.970,0.613,3109
1.972,0.237,3102
1.974,-0.180,3102
1.976,-0.593,3102
1.978,-1.048,3102
1.980,-1.413,3102
1.982,-1.673,3102
1.984,-1.810,3102
1.986,-1.802,3102
1.988,-1.647,3102
1.990,-1.367,3102
1.992,-0.993,3128
1.994,-0.580,3128
1.996,-0.170,3128
1.998,0.263,3128
2.000,0.927,3128
2.002,1.028,3128
2.004,1.022,3128
2.006,0.873,3128
2.008,0.593,3128
2.010,0.228,3121
2.012,-0.188,3121
2.014,-0.610,3121
2.016,-1.032,3121
2.018,-1.407,3121
2.020,-1.673,3121
2.022,-1.812,3121
2.024,-1.808,3121
2.026,-1.657,3121
2.028,-1.377,3121
2.030,-1.015,3106
2.032,-0.608,3106
2.034,-0.190,3106
2.036,0.237,3106
2.038,0.613,3106
2.040,1.038,3106
2.042,1.032,3106
2.044,0.890,3106
2.046,0.618,3106
2.048,0.258,3126
2.050,-0.165,3126
2.052,-0.580,3126
2.054,-1.008,3126
2.056,-1.380,3126
2.058,-1.647,3126
2.060,-1.788,3126
2.062,-1.802,3126
2.064,-1.647,3126
2.066,-1.377,3126
2.068,-1.012,3124
2.070,-0.585,3124
2.072,-0.172,3124
2.074,0.263,3124
2.076,0.657,3124
2.078,0.907,3124
2.080,1.048,3124
2.082,0.907,3124
2.084,0.627,3124
2.086,0.258,3121
2.088,-0.170,3121
2.090,-0.593,3121
2.092,-1.030,3121
2.094,-1.420,3121
2.096,-1.698,3121
2.098,-1.843,3121
2.100,-1.843,3121
2.102,-1.688,3121
2.104,-1.413,3121
2.106,-1.028,3128
2.108,-0.605,3128
2.110,-0.180,3128
2.112,0.258,3128
2.114,0.637,3128
2.116,0.917,3128
2.118,1.062,3128
2.120,0.887,3128
2.122,0.627,3128
2.124,0.273,3133
2.126,-0.142,3133
2.128,-0.573,3133
2.130,-1.002,3133
2.132,-1.385,3133
2.134,-1.663,3133
2.136,-1.808,3133
2.138,-1.802,3133
2.140,-1.655,3133
2.142,-1.383,3133
2.144,-1.018,3138
2.146,-0.603,3138
2.148,-0.177,3138
2.150,0.253,3138
2.152,0.627,3138
2.154,0.897,3138
2.156,1.038,3138
2.158,1.038,3138
2.160,0.550,3138
2.162,0.237,3133
2.164,-0.182,3133
2.166,-0.605,3133
2.168,-1.022,3133
2.170,-1.403,3133
2.172,-1.673,3133
2.174,-1.817,3133
2.176,-1.815,3133
2.178,-1.673,3133
2.180,-1.405,3133
2.182,-1.028,3121
2.184,-0.618,3121
2.186,-0.207,3121
2.188,0.233,3121
2.190,0.608,3121
2.192,0.877,3121
2.194,1.020,3121
2.196,1.028,3121
2.198,0.887,3121
2.200,0.180,3138
2.202,-0.583,3138
2.204,-1.010,3138
2.206,-1.385,3138
2.208,-1.660,3138
2.210,-1.790,3138
2.212,-1.808,3138
2.214,-1.653,3138
2.216,-1.380,3138
2.218,-1.010,3132
2.220,-0.598,3132
2.222,-0.172,3132
2.224,0.258,3132
2.226,0.630,3132
2.228,0.900,3132
2.230,1.038,3132
2.232,1.040,3132
2.234,0.892,3132
2.236,0.608,3132
2.238,0.237,3138
2.240,-0.690,3138
2.242,-1.042,3138
2.244,-1.425,3138
2.246,-1.698,3138
2.248,-1.840,3138
2.250,-1.845,3138
2.252,-1.698,3138
2.254,-1.417,3138
2.256,-1.050,3125
2.258,-0.647,3125
2.260,-0.217,3125
2.262,0.220,3125
2.264,0.598,3125
