Czas(s),EKG_Surowe(mV),PPG_Surowe(ADC)
0.000,-0.021,3067
0.001,-0.064,3067
0.002,-0.094,3067
0.003,-0.121,3067
0.004,-0.149,3067
0.005,-0.171,3067
0.006,-0.184,3067
0.007,-0.189,3067
0.008,-0.181,3069
0.009,-0.166,3069
0.010,-0.142,3069
0.011,-0.115,3069
0.012,-0.090,3069
0.013,-0.068,3069
0.014,-0.049,3069
0.015,-0.041,3069
0.016,-0.035,3069
0.017,-0.045,3069
0.018,-0.061,3077
0.019,-0.089,3077
0.020,-0.171,3077
0.021,-0.209,3077
0.022,-0.254,3077
0.023,-0.284,3077
0.024,-0.309,3077
0.025,-0.326,3077
0.026,-0.328,3077
0.027,-0.306,3075
0.028,-0.286,3075
0.029,-0.261,3075
0.030,-0.228,3075
0.031,-0.196,3075
0.032,-0.169,3075
0.033,-0.138,3075
0.034,-0.124,3075
0.035,-0.111,3075
0.036,-0.114,3075
0.037,-0.126,3088
0.038,-0.146,3088
0.039,-0.175,3088
0.040,-0.266,3088
0.041,-0.301,3088
0.042,-0.281,3088
0.043,-0.362,3088
0.044,-0.383,3088
0.045,-0.386,3088
0.046,-0.384,3087
0.047,-0.366,3087
0.048,-0.334,3087
0.049,-0.301,3087
0.050,-0.264,3087
0.051,-0.228,3087
0.052,-0.196,3087
0.053,-0.171,3087
0.054,-0.151,3087
0.055,-0.146,3087
0.056,-0.149,3087
0.057,-0.166,3087
0.058,-0.185,3087
0.059,-0.216,3087
0.060,-0.296,3087
0.061,-0.341,3087
0.062,-0.354,3087
0.063,-0.374,3087
0.064,-0.381,3087
0.065,-0.384,3083
0.066,-0.367,3083
0.067,-0.344,3083
0.068,-0.306,3083
0.069,-0.271,3083
0.070,-0.231,3083
0.071,-0.195,3083
0.072,-0.169,3083
0.073,-0.145,3083
0.074,-0.101,3083
0.075,-0.141,3097
0.076,-0.164,3097
0.077,-0.184,3097
0.078,-0.210,3097
0.079,-0.246,3097
0.080,-0.305,3097
0.081,-0.330,3097
0.082,-0.346,3097
0.083,-0.350,3097
0.084,-0.347,3086
0.085,-0.336,3086
0.086,-0.310,3086
0.087,-0.284,3086
0.088,-0.249,3086
0.089,-0.209,3086
0.090,-0.174,3086
0.091,-0.135,3086
0.092,-0.109,3086
0.093,-0.096,3086
0.094,-0.091,3091
0.095,-0.105,3091
0.096,-0.129,3091
0.097,-0.164,3091
0.098,-0.196,3091
0.099,-0.231,3091
0.100,-0.306,3091
0.101,-0.331,3091
0.102,-0.352,3091
0.103,-0.364,3035
0.104,-0.341,3035
0.105,-0.325,3035
0.106,-0.302,3035
0.107,-0.289,3035
0.108,-0.273,3035
0.109,-0.264,3035
0.110,-0.254,3035
0.111,-0.249,3035
0.112,-0.253,3102
0.113,-0.266,3102
0.114,-0.286,3102
0.115,-0.309,3102
0.116,-0.334,3102
0.117,-0.351,3102
0.118,-0.356,3102
0.119,-0.346,3102
0.120,-0.251,3102
0.121,-0.186,3076
0.122,-0.091,3076
0.123,0.026,3076
0.124,0.151,3076
0.125,0.291,3076
0.126,0.443,3076
0.127,0.588,3076
0.128,0.741,3076
0.129,0.890,3076
0.130,1.035,3076
0.131,1.174,3093
0.132,1.314,3093
0.133,1.462,3093
0.134,1.609,3093
0.135,1.759,3093
0.136,1.905,3093
0.137,2.031,3093
0.138,2.131,3093
0.139,2.190,3093
0.140,2.174,3060
0.141,2.042,3060
0.142,1.944,3060
0.143,1.830,3060
0.144,1.710,3060
0.145,1.571,3060
0.146,1.409,3060
0.147,1.230,3060
0.148,1.039,3060
0.149,0.846,3081
0.150,0.649,3081
0.151,0.446,3081
0.152,0.251,3081
0.153,0.065,3081
0.154,-0.109,3081
0.155,-0.254,3081
0.156,-0.371,3081
0.157,-0.469,3081
0.158,-0.534,3081
0.159,-0.581,3068
0.160,-0.613,3068
0.161,-0.603,3068
0.162,-0.584,3068
0.163,-0.554,3068
0.164,-0.526,3068
0.165,-0.500,3068
0.166,-0.531,3068
0.167,-0.451,3068
0.168,-0.441,3069
0.169,-0.445,3069
0.170,-0.455,3069
0.171,-0.466,3069
0.172,-0.485,3069
0.173,-0.496,3069
0.174,-0.511,3069
0.175,-0.526,3069
0.176,-0.531,3069
0.177,-0.529,3069
0.178,-0.514,3069
0.179,-0.496,3085
0.180,-0.434,3085
0.181,-0.391,3085
0.182,-0.357,3085
0.183,-0.331,3085
0.184,-0.304,3085
0.185,-0.284,3085
0.186,-0.270,3085
0.187,-0.269,3085
0.188,-0.281,3059
0.189,-0.296,3059
0.190,-0.324,3059
0.191,-0.350,3059
0.192,-0.388,3059
0.193,-0.414,3059
0.194,-0.436,3059
0.195,-0.449,3059
0.196,-0.454,3059
0.197,-0.446,3059
0.198,-0.444,3069
0.199,-0.436,3069
0.200,-0.335,3069
0.201,-0.301,3069
0.202,-0.273,3069
0.203,-0.251,3069
0.204,-0.241,3069
0.205,-0.234,3069
0.206,-0.247,3069
0.207,-0.268,3061
0.208,-0.295,3061
0.209,-0.329,3061
0.210,-0.361,3061
0.211,-0.391,3061
0.212,-0.422,3061
0.213,-0.444,3061
0.214,-0.454,3061
0.215,-0.456,3061
0.216,-0.449,3061
0.217,-0.430,3062
0.218,-0.406,3062
0.219,-0.371,3062
0.220,-0.291,3062
0.221,-0.264,3062
0.222,-0.231,3062
0.223,-0.211,3062
0.224,-0.198,3062
0.225,-0.204,3062
0.226,-0.216,3054
0.227,-0.241,3054
0.228,-0.269,3054
0.229,-0.304,3054
0.230,-0.344,3054
0.231,-0.369,3054
0.232,-0.386,3054
0.233,-0.401,3054
0.234,-0.394,3054
0.235,-0.386,3054
0.236,-0.369,3053
0.237,-0.347,3053
0.238,-0.323,3053
0.239,-0.287,3053
0.240,-0.226,3053
0.241,-0.209,3053
0.242,-0.190,3053
0.243,-0.186,3053
0.244,-0.191,3053
0.245,-0.209,3068
0.246,-0.241,3068
0.247,-0.271,3068
0.248,-0.306,3068
0.249,-0.344,3068
0.250,-0.370,3068
0.251,-0.394,3068
0.252,-0.411,3068
0.253,-0.412,3068
0.254,-0.404,3068
0.255,-0.381,3052
0.256,-0.355,3052
0.257,-0.329,3052
0.258,-0.290,3052
0.259,-0.256,3052
0.260,-0.182,3052
0.261,-0.166,3052
0.262,-0.176,3075
0.263,-0.234,3075
0.264,-0.269,3075
0.265,-0.310,3075
0.266,-0.346,3075
0.267,-0.370,3075
0.268,-0.386,3075
0.269,-0.386,3075
0.270,-0.376,3075
0.271,-0.361,3077
0.272,-0.335,3077
0.273,-0.306,3077
0.274,-0.271,3077
0.275,-0.231,3077
0.276,-0.194,3077
0.277,-0.165,3077
0.278,-0.135,3077
0.279,-0.126,3077
0.280,-0.149,3082
0.281,-0.205,3082
0.282,-0.245,3082
0.283,-0.281,3082
0.284,-0.310,3082
0.285,-0.344,3082
0.286,-0.352,3082
0.287,-0.352,3082
0.288,-0.345,3082
0.289,-0.346,3064
0.290,-0.296,3064
0.291,-0.266,3064
0.292,-0.224,3064
0.293,-0.189,3064
0.294,-0.154,3064
0.295,-0.124,3064
0.296,-0.096,3064
0.297,-0.086,3064
0.298,-0.083,3064
0.299,-0.091,3067
0.300,-0.145,3067
0.301,-0.181,3067
0.302,-0.214,3067
0.303,-0.251,3067
0.304,-0.276,3067
0.305,-0.296,3067
0.306,-0.304,3067
0.307,-0.295,3067
0.308,-0.281,3083
0.309,-0.254,3083
0.310,-0.225,3083
0.311,-0.194,3083
0.312,-0.161,3083
0.313,-0.121,3083
0.314,-0.090,3083
0.315,-0.064,3083
0.316,-0.049,3083
0.317,-0.046,3083
0.318,-0.054,3090
0.319,-0.080,3090
0.320,-0.151,3090
0.321,-0.184,3090
0.322,-0.210,3090
0.323,-0.246,3090
0.324,-0.261,3090
0.325,-0.263,3090
0.326,-0.254,3090
0.327,-0.229,3081
0.328,-0.196,3081
0.329,-0.166,3081
0.330,-0.124,3081
0.331,-0.081,3081
0.332,-0.036,3081
0.333,-0.004,3081
0.334,0.034,3081
0.335,0.051,3081
0.336,0.054,3081
0.337,0.044,3095
0.338,0.014,3095
0.339,-0.024,3095
0.340,-0.111,3095
0.341,-0.147,3095
0.342,-0.181,3095
0.343,-0.204,3095
0.344,-0.221,3095
0.345,-0.224,3095
0.346,-0.211,3080
0.347,-0.191,3080
0.348,-0.168,3080
0.349,-0.126,3080
0.350,-0.090,3080
0.351,-0.051,3080
0.352,-0.031,3080
0.353,0.010,3080
0.354,0.024,3080
0.355,0.029,3080
0.356,0.019,3077
0.357,-0.009,3077
0.358,-0.031,3077
0.359,-0.065,3077
0.360,-0.129,3077
0.361,-0.151,3077
0.362,-0.181,3077
0.363,-0.190,3077
0.364,-0.190,3077
0.365,-0.175,3090
0.366,-0.150,3090
0.367,-0.124,3090
0.368,-0.089,3090
0.369,-0.054,3090
0.370,-0.021,3090
0.371,0.011,3090
0.372,0.031,3090
0.373,0.037,3090
0.374,0.035,3090
0.375,0.024,3080
0.376,-0.010,3080
0.377,-0.039,3080
0.378,-0.070,3080
0.379,-0.111,3080
0.380,-0.181,3080
0.381,-0.194,3080
0.382,-0.249,3080
0.383,-0.204,3080
0.384,-0.189,3082
0.385,-0.170,3082
0.386,-0.144,3082
0.387,-0.111,3082
0.388,-0.090,3082
0.389,-0.070,3082
0.390,-0.052,3082
0.391,-0.036,3082
0.392,-0.045,3082
0.393,-0.055,3082
0.394,-0.086,3078
0.395,-0.114,3078
0.396,-0.151,3078
0.397,-0.196,3078
0.398,-0.241,3078
0.399,-0.271,3078
0.400,-0.331,3078
0.401,-0.341,3078
0.402,-0.331,3077
0.403,-0.311,3077
0.404,-0.284,3077
0.405,-0.250,3077
0.406,-0.216,3077
0.407,-0.189,3077
0.408,-0.161,3077
0.409,-0.142,3077
0.410,-0.131,3077
0.411,-0.142,3077
0.412,-0.168,3079
0.413,-0.204,3079
0.414,-0.247,3079
0.415,-0.291,3079
0.416,-0.333,3079
0.417,-0.374,3079
0.418,-0.410,3079
0.419,-0.435,3079
0.420,-0.446,3079
0.421,-0.429,3079
0.422,-0.366,3079
0.423,-0.329,3079
0.424,-0.280,3079
0.425,-0.234,3079
0.426,-0.205,3079
0.427,-0.186,3079
0.428,-0.181,3079
0.429,-0.191,3079
0.430,-0.211,3079
0.431,-0.254,3081
0.432,-0.291,3081
0.433,-0.340,3081
0.434,-0.384,3081
0.435,-0.426,3081
0.436,-0.459,3081
0.437,-0.485,3081
0.438,-0.494,3081
0.439,-0.487,3081
0.440,-0.431,3058
0.441,-0.356,3058
0.442,-0.309,3058
0.443,-0.274,3058
0.444,-0.244,3058
0.445,-0.224,3058
0.446,-0.210,3058
0.447,-0.214,3058
0.448,-0.231,3058
0.449,-0.263,3076
0.450,-0.301,3076
0.451,-0.346,3076
0.452,-0.386,3076
0.453,-0.429,3076
0.454,-0.461,3076
0.455,-0.484,3076
0.456,-0.491,3076
0.457,-0.486,3076
0.458,-0.469,3076
0.459,-0.441,3067
0.460,-0.362,3067
0.461,-0.331,3067
0.462,-0.292,3067
0.463,-0.265,3067
0.464,-0.246,3067
0.465,-0.229,3067
0.466,-0.231,3067
0.467,-0.246,3067
0.468,-0.266,3063
0.469,-0.291,3063
0.470,-0.331,3063
0.471,-0.369,3063
0.472,-0.406,3063
0.473,-0.431,3063
0.474,-0.449,3063
0.475,-0.451,3063
0.476,-0.446,3063
0.477,-0.429,3063
0.478,-0.401,3065
0.479,-0.355,3065
0.480,-0.273,3065
0.481,-0.251,3065
0.482,-0.228,3065
0.483,-0.211,3065
0.484,-0.206,3065
0.485,-0.212,3065
0.486,-0.228,3065
0.487,-0.251,3047
0.488,-0.281,3047
0.489,-0.311,3047
0.490,-0.349,3047
0.491,-0.376,3047
0.492,-0.406,3047
0.493,-0.421,3047
0.494,-0.426,3047
0.495,-0.421,3047
0.496,-0.407,3047
0.497,-0.385,3060
0.498,-0.356,3060
0.499,-0.331,3060
0.500,-0.260,3060
0.501,-0.241,3060
0.502,-0.214,3060
0.503,-0.205,3060
0.504,-0.209,3060
0.505,-0.185,3060
0.506,-0.241,3072
0.507,-0.264,3072
0.508,-0.290,3072
0.509,-0.326,3072
0.510,-0.352,3072
0.511,-0.378,3072
0.512,-0.400,3072
0.513,-0.409,3072
0.514,-0.407,3072
0.515,-0.394,3072
0.516,-0.371,3063
0.517,-0.345,3063
0.518,-0.311,3063
0.519,-0.271,3063
0.520,-0.190,3063
0.521,-0.171,3063
0.522,-0.151,3063
0.523,-0.146,3063
0.524,-0.152,3063
0.525,-0.174,3055
0.526,-0.205,3055
0.527,-0.246,3055
0.528,-0.286,3055
0.529,-0.329,3055
0.530,-0.365,3055
0.531,-0.390,3055
0.532,-0.404,3055
0.533,-0.404,3055
0.534,-0.384,3055
0.535,-0.366,3074
0.536,-0.334,3074
0.537,-0.290,3074
0.538,-0.251,3074
0.539,-0.216,3074
0.540,-0.180,3074
0.541,-0.163,3074
0.542,-0.161,3074
0.543,-0.166,3074
0.544,-0.186,3076
0.545,-0.214,3076
0.546,-0.249,3076
0.547,-0.286,3076
0.548,-0.314,3076
0.549,-0.344,3076
0.550,-0.362,3076
0.551,-0.370,3076
0.552,-0.365,3076
0.553,-0.350,3076
0.554,-0.326,3091
0.555,-0.290,3091
0.556,-0.255,3091
0.557,-0.211,3091
0.558,-0.176,3091
0.559,-0.144,3091
0.560,-0.111,3091
0.561,-0.114,3091
0.562,-0.126,3091
0.563,-0.147,3085
0.564,-0.184,3085
0.565,-0.212,3085
0.566,-0.251,3085
0.567,-0.281,3085
0.568,-0.305,3085
0.569,-0.326,3085
0.570,-0.334,3085
0.571,-0.341,3085
0.572,-0.331,3085
0.573,-0.314,3084
0.574,-0.291,3084
0.575,-0.270,3084
0.576,-0.231,3084
0.577,-0.206,3084
0.578,-0.181,3084
0.579,-0.164,3084
0.580,-0.164,3084
0.581,-0.174,3084
0.582,-0.194,3071
0.583,-0.226,3071
0.584,-0.261,3071
0.585,-0.292,3071
0.586,-0.326,3071
0.587,-0.351,3071
0.588,-0.364,3071
0.589,-0.370,3071
0.590,-0.369,3071
0.591,-0.355,3071
0.592,-0.331,3080
0.593,-0.301,3080
0.594,-0.269,3080
0.595,-0.229,3080
0.596,-0.196,3080
0.597,-0.172,3080
0.598,-0.151,3080
0.599,-0.141,3080
0.600,-0.164,3080
0.601,-0.185,3095
0.602,-0.214,3095
0.603,-0.250,3095
0.604,-0.281,3095
0.605,-0.311,3095
0.606,-0.344,3095
0.607,-0.361,3095
0.608,-0.371,3095
0.609,-0.369,3095
0.610,-0.351,3095
0.611,-0.326,3080
0.612,-0.290,3080
0.613,-0.256,3080
0.614,-0.223,3080
0.615,-0.191,3080
0.616,-0.170,3080
0.617,-0.151,3080
0.618,-0.149,3080
0.619,-0.161,3080
0.620,-0.201,3083
0.621,-0.261,3083
0.622,-0.294,3083
0.623,-0.329,3083
0.624,-0.350,3083
0.625,-0.361,3083
0.626,-0.356,3083
0.627,-0.345,3083
0.628,-0.321,3083
0.629,-0.289,3084
0.630,-0.254,3084
0.631,-0.261,3084
0.632,-0.185,3084
0.633,-0.151,3084
0.634,-0.126,3084
0.635,-0.114,3084
0.636,-0.110,3084
0.637,-0.110,3084
0.638,-0.121,3084
0.639,-0.141,3066
0.640,-0.214,3066
0.641,-0.244,3066
0.642,-0.274,3066
0.643,-0.304,3066
0.644,-0.328,3066
0.645,-0.341,3066
0.646,-0.340,3066
0.647,-0.329,3066
0.648,-0.310,3079
0.649,-0.285,3079
0.650,-0.254,3079
0.651,-0.216,3079
0.652,-0.186,3079
0.653,-0.161,3079
0.654,-0.142,3079
0.655,-0.136,3079
0.656,-0.146,3079
0.657,-0.165,3079
0.658,-0.184,3044
0.659,-0.210,3044
0.660,-0.271,3044
0.661,-0.296,3044
0.662,-0.311,3044
0.663,-0.330,3044
0.664,-0.333,3044
0.665,-0.330,3044
0.666,-0.321,3044
0.667,-0.294,3062
0.668,-0.266,3062
0.669,-0.226,3062
0.670,-0.191,3062
0.671,-0.154,3062
0.672,-0.124,3062
0.673,-0.106,3062
0.674,-0.094,3062
0.675,-0.100,3062
0.676,-0.115,3062
0.677,-0.144,3062
0.678,-0.210,3053
0.679,-0.295,3053
0.680,-0.366,3053
0.681,-0.366,3053
0.682,-0.354,3053
0.683,-0.336,3053
0.684,-0.309,3053
0.685,-0.274,3062
0.686,-0.241,3062
0.687,-0.204,3062
0.688,-0.170,3062
0.689,-0.134,3062
0.690,-0.113,3062
0.691,-0.096,3062
0.692,-0.111,3062
0.693,-0.104,3062
0.694,-0.125,3062
0.695,-0.146,3060
0.696,-0.181,3060
0.697,-0.216,3060
0.698,-0.261,3060
0.699,-0.289,3060
0.700,-0.325,3060
0.701,-0.324,3060
0.702,-0.309,3060
0.703,-0.291,3060
0.704,-0.264,3073
0.705,-0.226,3073
0.706,-0.194,3073
0.707,-0.168,3073
0.708,-0.139,3073
0.709,-0.121,3073
0.710,-0.114,3073
0.711,-0.115,3073
0.712,-0.129,3073
0.713,-0.146,3073
0.714,-0.174,3055
0.715,-0.205,3055
0.716,-0.231,3055
0.717,-0.261,3055
0.718,-0.274,3055
0.719,-0.282,3055
0.720,-0.265,3055
0.721,-0.242,3055
0.722,-0.211,3055
0.723,-0.175,3061
0.724,-0.134,3061
0.725,-0.101,3061
0.726,-0.065,3061
0.727,-0.044,3061
0.728,-0.026,3061
0.729,-0.026,3061
0.730,-0.037,3061
0.731,-0.056,3061
0.732,-0.086,3061
0.733,-0.116,3053
0.734,-0.151,3053
0.735,-0.193,3053
0.736,-0.229,3053
0.737,-0.266,3053
0.738,-0.291,3053
0.739,-0.309,3053
0.740,-0.306,3053
0.741,-0.254,3077
0.742,-0.181,3077
0.743,-0.144,3077
0.744,-0.110,3077
0.745,-0.084,3077
0.746,-0.066,3077
0.747,-0.054,3077
0.748,-0.056,3077
0.749,-0.071,3077
0.750,-0.092,3079
0.751,-0.116,3079
0.752,-0.180,3079
0.753,-0.174,3079
0.754,-0.191,3079
0.755,-0.201,3079
0.756,-0.204,3079
0.757,-0.194,3079
0.758,-0.186,3079
0.759,-0.165,3079
0.760,-0.102,3061
0.761,-0.049,3061
0.762,-0.031,3061
0.763,-0.021,3061
0.764,-0.025,3061
0.765,-0.031,3061
0.766,-0.049,3061
0.767,-0.080,3061
0.768,-0.109,3069
0.769,-0.144,3069
0.770,-0.184,3069
0.771,-0.216,3069
0.772,-0.249,3069
0.773,-0.266,3069
0.774,-0.275,3069
0.775,-0.281,3069
0.776,-0.276,3069
0.777,-0.269,3069
0.778,-0.256,3084
0.779,-0.241,3084
0.780,-0.190,3084
0.781,-0.174,3084
0.782,-0.114,3084
0.783,-0.163,3084
0.784,-0.165,3084
0.785,-0.176,3084
0.786,-0.201,3084
0.787,-0.229,3059
0.788,-0.261,3059
0.789,-0.289,3059
0.790,-0.321,3059
0.791,-0.344,3059
0.792,-0.361,3059
0.793,-0.367,3059
0.794,-0.365,3059
0.795,-0.346,3059
0.796,-0.325,3059
0.797,-0.289,3072
0.798,-0.256,3072
0.799,-0.214,3072
0.800,-0.146,3072
0.801,-0.136,3072
0.802,-0.149,3072
0.803,-0.170,3072
0.804,-0.203,3072
0.805,-0.241,3080
0.806,-0.274,3080
0.807,-0.309,3080
0.808,-0.336,3080
0.809,-0.356,3080
0.810,-0.369,3080
0.811,-0.366,3080
0.812,-0.361,3080
0.813,-0.344,3080
0.814,-0.314,3080
0.815,-0.282,3073
0.816,-0.251,3073
0.817,-0.214,3073
0.818,-0.182,3073
0.819,-0.151,3073
0.820,-0.124,3073
0.821,-0.124,3073
0.822,-0.136,3073
0.823,-0.164,3073
0.824,-0.191,3082
0.825,-0.226,3082
0.826,-0.264,3082
0.827,-0.297,3082
0.828,-0.329,3082
0.829,-0.349,3082
0.830,-0.362,3082
0.831,-0.362,3082
0.832,-0.349,3082
0.833,-0.329,3082
0.834,-0.296,3081
0.835,-0.264,3081
0.836,-0.224,3081
0.837,-0.190,3081
0.838,-0.161,3081
0.839,-0.134,3081
0.840,-0.126,3081
0.841,-0.138,3081
0.842,-0.161,3081
0.843,-0.182,3067
0.844,-0.214,3067
0.845,-0.244,3067
0.846,-0.281,3067
0.847,-0.304,3067
0.848,-0.321,3067
0.849,-0.329,3067
0.850,-0.330,3067
0.851,-0.324,3067
0.852,-0.304,3067
0.853,-0.284,3092
0.854,-0.261,3092
0.855,-0.231,3092
0.856,-0.215,3092
0.857,-0.205,3092
0.858,-0.204,3092
0.859,-0.214,3092
0.860,-0.271,3092
0.861,-0.301,3092
0.862,-0.335,3090
0.863,-0.371,3090
0.864,-0.412,3090
0.865,-0.441,3090
0.866,-0.464,3090
0.867,-0.470,3090
0.868,-0.461,3090
0.869,-0.441,3090
0.870,-0.404,3090
0.871,-0.351,3090
0.872,-0.287,3100
0.873,-0.210,3100
0.874,-0.126,3100
0.875,-0.031,3100
0.876,0.079,3100
0.877,0.184,3100
0.878,0.289,3100
0.879,0.389,3100
0.880,0.606,3100
0.881,0.689,3078
0.882,0.777,3078
0.883,0.876,3078
0.884,0.991,3078
0.885,1.114,3078
0.886,1.256,3078
0.887,1.425,3078
0.888,1.616,3078
0.889,1.816,3078
0.890,2.036,3078
0.891,2.234,3071
0.892,2.394,3071
0.893,2.491,3071
0.894,2.518,3071
0.895,2.487,3071
0.896,2.389,3071
0.897,2.239,3071
0.898,2.049,3071
0.899,1.819,3071
0.900,1.291,3059
0.901,0.834,3059
0.902,0.606,3059
0.903,0.389,3059
0.904,0.193,3059
0.905,0.031,3059
0.906,-0.111,3059
0.907,-0.212,3059
0.908,-0.291,3059
0.909,-0.347,3076
0.910,-0.384,3076
0.911,-0.404,3076
0.912,-0.411,3076
0.913,-0.415,3076
0.914,-0.421,3076
0.915,-0.426,3076
0.916,-0.436,3076
0.917,-0.454,3076
0.918,-0.484,3076
0.919,-0.510,3076
0.920,-0.586,3068
0.921,-0.626,3068
0.922,-0.631,3068
0.923,-0.629,3068
0.924,-0.609,3068
0.925,-0.581,3068
0.926,-0.541,3068
0.927,-0.496,3068
0.928,-0.454,3061
0.929,-0.411,3061
0.930,-0.369,3061
0.931,-0.331,3061
0.932,-0.302,3061
0.933,-0.291,3061
0.934,-0.286,3061
0.935,-0.292,3061
0.936,-0.310,3061
0.937,-0.344,3061
0.938,-0.374,3044
0.939,-0.416,3044
0.940,-0.494,3044
0.941,-0.506,3044
0.942,-0.516,3044
0.943,-0.515,3044
0.944,-0.504,3044
0.945,-0.472,3044
0.946,-0.446,3044
0.947,-0.414,3074
0.948,-0.376,3074
0.949,-0.346,3074
0.950,-0.311,3074
0.951,-0.291,3074
0.952,-0.280,3074
0.953,-0.273,3074
0.954,-0.282,3074
0.955,-0.296,3074
0.956,-0.330,3074
0.957,-0.364,3066
0.958,-0.391,3066
0.959,-0.424,3066
0.960,-0.466,3066
0.961,-0.470,3066
0.962,-0.468,3066
0.963,-0.451,3066
0.964,-0.431,3066
0.965,-0.404,3066
0.966,-0.367,3067
0.967,-0.334,3067
0.968,-0.281,3067
0.969,-0.273,3067
0.970,-0.253,3067
0.971,-0.241,3067
0.972,-0.246,3067
0.973,-0.254,3067
0.974,-0.271,3067
0.975,-0.294,3067
0.976,-0.329,3054
0.977,-0.357,3054
0.978,-0.386,3054
0.979,-0.411,3054
0.980,-0.434,3054
0.981,-0.430,3054
0.982,-0.420,3054
0.983,-0.393,3054
0.984,-0.370,3054
0.985,-0.336,3058
0.986,-0.305,3058
0.987,-0.274,3058
0.988,-0.246,3058
0.989,-0.217,3058
0.990,-0.206,3058
0.991,-0.206,3058
0.992,-0.212,3058
0.993,-0.233,3058
0.994,-0.270,3058
0.995,-0.302,3058
0.996,-0.341,3058
0.997,-0.371,3058
0.998,-0.401,3058
0.999,-0.414,3058
1.000,-0.401,3058
1.001,-0.346,3058
1.002,-0.321,3058
1.003,-0.276,3072
1.004,-0.244,3072
1.005,-0.209,3072
1.006,-0.181,3072
1.007,-0.166,3072
1.008,-0.164,3072
1.009,-0.165,3072
1.010,-0.176,3072
1.011,-0.203,3072
1.012,-0.234,3072
1.013,-0.270,3064
1.014,-0.307,3064
1.015,-0.344,3064
1.016,-0.370,3064
1.017,-0.384,3064
1.018,-0.381,3064
1.019,-0.369,3064
1.020,-0.304,3064
1.021,-0.271,3064
1.022,-0.233,3070
1.023,-0.196,3070
1.024,-0.166,3070
1.025,-0.135,3070
1.026,-0.115,3070
1.027,-0.109,3070
1.028,-0.109,3070
1.029,-0.121,3070
1.030,-0.136,3070
1.031,-0.170,3070
1.032,-0.205,3080
1.033,-0.233,3080
1.034,-0.268,3080
1.035,-0.294,3080
1.036,-0.311,3080
1.037,-0.326,3080
1.038,-0.326,3080
1.039,-0.311,3080
1.040,-0.263,3080
1.041,-0.229,3083
1.042,-0.194,3083
1.043,-0.166,3083
1.044,-0.131,3083
1.045,-0.114,3083
1.046,-0.104,3083
1.047,-0.101,3083
1.048,-0.111,3083
1.049,-0.129,3083
1.050,-0.152,3083
1.051,-0.190,3054
1.052,-0.224,3054
1.053,-0.256,3054
1.054,-0.285,3054
1.055,-0.294,3054
1.056,-0.297,3054
1.057,-0.291,3054
1.058,-0.270,3054
1.059,-0.231,3054
1.060,-0.146,3077
1.061,-0.105,3077
1.062,-0.035,3077
1.063,-0.021,3077
1.064,-0.009,3077
1.065,-0.009,3077
1.066,-0.026,3077
1.067,-0.054,3077
1.068,-0.092,3077
1.069,-0.131,3055
1.070,-0.174,3055
1.071,-0.207,3055
1.072,-0.233,3055
1.073,-0.249,3055
1.074,-0.251,3055
1.075,-0.244,3055
1.076,-0.221,3055
1.077,-0.189,3055
1.078,-0.150,3055
1.079,-0.111,3087
1.080,-0.036,3087
1.081,-0.009,3087
1.082,0.024,3087
1.083,0.034,3087
1.084,0.034,3087
1.085,0.019,3087
1.086,-0.005,3087
1.087,-0.030,3087
1.088,-0.051,3084
1.089,-0.094,3084
1.090,-0.126,3084
1.091,-0.149,3084
1.092,-0.168,3084
1.093,-0.191,3084
1.094,-0.164,3084
1.095,-0.144,3084
1.096,-0.124,3084
1.097,-0.091,3084
1.098,-0.061,3072
1.099,-0.029,3072
1.100,0.030,3072
1.101,0.040,3072
1.102,0.044,3072
1.103,0.045,3072
1.104,0.030,3072
1.105,-0.007,3072
1.106,-0.036,3072
1.107,-0.071,3095
1.108,-0.111,3095
1.109,-0.134,3095
1.110,-0.164,3095
1.111,-0.174,3095
1.112,-0.176,3095
1.113,-0.171,3095
1.114,-0.154,3095
1.115,-0.130,3095
1.116,-0.096,3095
1.117,-0.064,3074
1.118,-0.026,3074
1.119,0.013,3074
1.120,0.059,3074
1.121,0.055,3074
1.122,0.074,3074
1.123,-0.011,3074
1.124,-0.056,3074
1.125,-0.124,3071
1.126,-0.163,3071
1.127,-0.193,3071
1.128,-0.216,3071
1.129,-0.226,3071
1.130,-0.224,3071
1.131,-0.209,3071
1.132,-0.186,3071
1.133,-0.151,3071
1.134,-0.116,3080
1.135,-0.084,3080
1.136,-0.048,3080
1.137,-0.021,3080
1.138,-0.004,3080
1.139,-0.003,3080
1.140,-0.041,3080
1.141,-0.069,3080
1.142,-0.110,3080
1.143,-0.154,3076
1.144,-0.201,3076
1.145,-0.244,3076
1.146,-0.271,3076
1.147,-0.295,3076
1.148,-0.310,3076
1.149,-0.311,3076
1.150,-0.302,3076
1.151,-0.289,3076
1.152,-0.264,3076
1.153,-0.231,3065
1.154,-0.223,3065
1.155,-0.174,3065
1.156,-0.149,3065
1.157,-0.138,3065
1.158,-0.134,3065
1.159,-0.144,3065
1.160,-0.196,3065
1.161,-0.244,3065
1.162,-0.271,3074
1.163,-0.306,3074
1.164,-0.344,3074
1.165,-0.370,3074
1.166,-0.389,3074
1.167,-0.406,3074
1.168,-0.406,3074
1.169,-0.391,3074
1.170,-0.374,3074
1.171,-0.346,3074
1.172,-0.310,3074
1.173,-0.281,3093
1.174,-0.245,3093
1.175,-0.214,3093
1.176,-0.205,3093
1.177,-0.203,3093
1.178,-0.214,3093
1.179,-0.241,3093
1.180,-0.312,3093
1.181,-0.346,3093
1.182,-0.381,3058
1.183,-0.414,3058
1.184,-0.445,3058
1.185,-0.463,3058
1.186,-0.466,3058
1.187,-0.463,3058
1.188,-0.449,3058
1.189,-0.424,3058
1.190,-0.386,3058
1.191,-0.349,3058
1.192,-0.312,3073
1.193,-0.284,3073
1.194,-0.264,3073
1.195,-0.250,3073
1.196,-0.249,3073
1.197,-0.254,3073
1.198,-0.266,3073
1.199,-0.289,3073
1.200,-0.354,3071
1.201,-0.414,3071
1.202,-0.434,3071
1.203,-0.450,3071
1.204,-0.453,3071
1.205,-0.449,3071
1.206,-0.430,3071
1.207,-0.401,3071
1.208,-0.364,3071
1.209,-0.325,3071
1.210,-0.284,3067
1.211,-0.250,3067
1.212,-0.221,3067
1.213,-0.204,3067
1.214,-0.195,3067
1.215,-0.203,3067
1.216,-0.212,3067
1.217,-0.233,3067
1.218,-0.266,3067
1.219,-0.301,3067
1.220,-0.384,3069
1.221,-0.434,3069
1.222,-0.444,3069
1.223,-0.441,3069
1.224,-0.425,3069
1.225,-0.401,3069
1.226,-0.369,3069
1.227,-0.335,3069
1.228,-0.301,3067
1.229,-0.269,3067
1.230,-0.244,3067
1.231,-0.217,3067
1.232,-0.210,3067
1.233,-0.209,3067
1.234,-0.221,3067
1.235,-0.234,3067
1.236,-0.266,3067
1.237,-0.295,3067
1.238,-0.335,3075
1.239,-0.361,3075
1.240,-0.410,3075
1.241,-0.409,3075
1.242,-0.405,3075
1.243,-0.383,3075
1.244,-0.361,3075
1.245,-0.269,3075
1.246,-0.254,3075
1.247,-0.256,3069
1.248,-0.228,3069
1.249,-0.210,3069
1.250,-0.194,3069
1.251,-0.191,3069
1.252,-0.194,3069
1.253,-0.209,3069
1.254,-0.229,3069
1.255,-0.255,3069
1.256,-0.289,3069
1.257,-0.324,3068
1.258,-0.352,3068
1.259,-0.375,3068
1.260,-0.391,3068
1.261,-0.391,3068
1.262,-0.364,3068
1.263,-0.334,3068
1.264,-0.295,3068
1.265,-0.261,3068
1.266,-0.219,3080
1.267,-0.186,3080
1.268,-0.165,3080
1.269,-0.149,3080
1.270,-0.144,3080
1.271,-0.151,3080
1.272,-0.171,3080
1.273,-0.201,3080
1.274,-0.234,3080
1.275,-0.276,3080
1.276,-0.309,3079
1.277,-0.344,3079
1.278,-0.366,3079
1.279,-0.378,3079
1.280,-0.375,3079
1.281,-0.364,3079
1.282,-0.335,3079
1.283,-0.302,3079
1.284,-0.269,3079
1.285,-0.226,3073
1.286,-0.190,3073
1.287,-0.161,3073
1.288,-0.136,3073
1.289,-0.130,3073
1.290,-0.135,3073
1.291,-0.151,3073
1.292,-0.186,3073
1.293,-0.217,3073
1.294,-0.251,3073
1.295,-0.276,3094
1.296,-0.304,3094
1.297,-0.333,3094
1.298,-0.349,3094
1.299,-0.351,3094
1.300,-0.331,3094
1.301,-0.304,3094
1.302,-0.271,3094
1.303,-0.233,3094
1.304,-0.203,3080
1.305,-0.169,3080
1.306,-0.144,3080
1.307,-0.129,3080
1.308,-0.126,3080
1.309,-0.133,3080
1.310,-0.152,3080
1.311,-0.184,3080
1.312,-0.211,3080
1.313,-0.247,3080
1.314,-0.276,3086
1.315,-0.301,3086
1.316,-0.325,3086
1.317,-0.335,3086
1.318,-0.336,3086
1.319,-0.334,3086
1.320,-0.301,3086
1.321,-0.273,3086
1.322,-0.245,3086
1.323,-0.214,3087
1.324,-0.191,3087
1.325,-0.169,3087
1.326,-0.150,3087
1.327,-0.144,3087
1.328,-0.146,3087
1.329,-0.164,3087
1.330,-0.185,3087
1.331,-0.214,3087
1.332,-0.249,3087
1.333,-0.276,3085
1.334,-0.305,3085
1.335,-0.329,3085
1.336,-0.341,3085
1.337,-0.343,3085
1.338,-0.330,3085
1.339,-0.309,3085
1.340,-0.245,3085
1.341,-0.211,3085
1.342,-0.174,3076
1.343,-0.146,3076
1.344,-0.125,3076
1.345,-0.111,3076
1.346,-0.109,3076
1.347,-0.121,3076
1.348,-0.136,3076
1.349,-0.165,3076
1.350,-0.196,3076
1.351,-0.229,3076
1.352,-0.266,3106
1.353,-0.295,3106
1.354,-0.321,3106
1.355,-0.335,3106
1.356,-0.341,3106
1.357,-0.334,3106
1.358,-0.324,3106
1.359,-0.291,3106
1.360,-0.221,3106
1.361,-0.194,3084
1.362,-0.169,3084
1.363,-0.141,3084
1.364,-0.129,3084
1.365,-0.128,3084
1.366,-0.131,3084
1.367,-0.149,3084
1.368,-0.174,3084
1.369,-0.210,3084
1.370,-0.246,3084
1.371,-0.286,3095
1.372,-0.323,3095
1.373,-0.345,3095
1.374,-0.355,3095
1.375,-0.360,3095
1.376,-0.351,3095
1.377,-0.334,3095
1.378,-0.306,3095
1.379,-0.276,3095
1.380,-0.196,3048
1.381,-0.149,3048
1.382,-0.133,3048
1.383,-0.126,3048
1.384,-0.131,3048
1.385,-0.145,3048
1.386,-0.166,3048
1.387,-0.189,3048
1.388,-0.221,3048
1.389,-0.254,3075
1.390,-0.284,3075
1.391,-0.306,3075
1.392,-0.329,3075
1.393,-0.340,3075
1.394,-0.336,3075
1.395,-0.325,3075
1.396,-0.294,3075
1.397,-0.261,3075
1.398,-0.221,3075
1.399,-0.184,3067
1.400,-0.126,3067
1.401,-0.115,3067
1.402,-0.133,3067
1.403,-0.146,3067
1.404,-0.172,3067
1.405,-0.196,3067
1.406,-0.230,3067
1.407,-0.266,3067
1.408,-0.296,3072
1.409,-0.321,3072
1.410,-0.334,3072
1.411,-0.334,3072
1.412,-0.325,3072
1.413,-0.306,3072
1.414,-0.284,3072
1.415,-0.253,3072
1.416,-0.215,3072
1.417,-0.184,3072
1.418,-0.149,3063
1.419,-0.126,3063
1.420,-0.120,3063
1.421,-0.122,3063
1.422,-0.138,3063
1.423,-0.168,3063
1.424,-0.193,3063
1.425,-0.226,3063
1.426,-0.265,3063
1.427,-0.292,3070
1.428,-0.324,3070
1.429,-0.341,3070
1.430,-0.344,3070
1.431,-0.340,3070
1.432,-0.321,3070
1.433,-0.295,3070
1.434,-0.265,3070
1.435,-0.231,3070
1.436,-0.196,3070
1.437,-0.170,3072
1.438,-0.142,3072
1.439,-0.131,3072
1.440,-0.136,3072
1.441,-0.146,3072
1.442,-0.171,3072
1.443,-0.204,3072
1.444,-0.242,3072
1.445,-0.270,3072
1.446,-0.295,3061
1.447,-0.311,3061
1.448,-0.328,3061
1.449,-0.330,3061
1.450,-0.324,3061
1.451,-0.301,3061
1.452,-0.275,3061
1.453,-0.244,3061
1.454,-0.204,3061
1.455,-0.171,3061
1.456,-0.134,3052
1.457,-0.106,3052
1.458,-0.085,3052
1.459,-0.069,3052
1.460,-0.091,3052
1.461,-0.124,3052
1.462,-0.154,3052
1.463,-0.186,3052
1.464,-0.256,3052
1.465,-0.264,3061
1.466,-0.291,3061
1.467,-0.312,3061
1.468,-0.321,3061
1.469,-0.312,3061
1.470,-0.302,3061
1.471,-0.271,3061
1.472,-0.246,3061
1.473,-0.211,3061
1.474,-0.174,3061
1.475,-0.144,3054
1.476,-0.121,3054
1.477,-0.109,3054
1.478,-0.102,3054
1.479,-0.102,3054
1.480,-0.136,3054
1.481,-0.164,3054
1.482,-0.189,3054
1.483,-0.216,3054
1.484,-0.251,3065
1.485,-0.274,3065
1.486,-0.289,3065
1.487,-0.290,3065
1.488,-0.276,3065
1.489,-0.261,3065
1.490,-0.231,3065
1.491,-0.209,3065
1.492,-0.181,3065
1.493,-0.150,3065
1.494,-0.128,3050
1.495,-0.106,3050
1.496,-0.094,3050
1.497,-0.089,3050
1.498,-0.096,3050
1.499,-0.111,3050
1.500,-0.181,3050
1.501,-0.211,3050
1.502,-0.254,3050
1.503,-0.289,3060
1.504,-0.321,3060
1.505,-0.336,3060
1.506,-0.345,3060
1.507,-0.341,3060
1.508,-0.324,3060
1.509,-0.287,3060
1.510,-0.251,3060
1.511,-0.201,3060
1.512,-0.149,3060
1.513,-0.105,3070
1.514,-0.064,3070
1.515,-0.036,3070
1.516,-0.026,3070
1.517,-0.031,3070
1.518,-0.049,3070
1.519,-0.081,3070
1.520,-0.151,3070
1.521,-0.186,3070
1.522,-0.216,3077
1.523,-0.249,3077
1.524,-0.263,3077
1.525,-0.266,3077
1.526,-0.256,3077
1.527,-0.233,3077
1.528,-0.209,3077
1.529,-0.171,3077
1.530,-0.129,3077
1.531,-0.086,3077
1.532,-0.045,3081
1.533,-0.016,3081
1.534,0.011,3081
1.535,0.019,3081
1.536,0.019,3081
1.537,-0.006,3081
1.538,-0.026,3081
1.539,-0.065,3081
1.540,-0.147,3081
1.541,-0.176,3086
1.542,-0.230,3086
1.543,-0.249,3086
1.544,-0.254,3086
1.545,-0.249,3086
1.546,-0.229,3086
1.547,-0.206,3086
1.548,-0.176,3086
1.549,-0.141,3086
1.550,-0.104,3077
1.551,-0.065,3077
1.552,-0.035,3077
1.553,-0.009,3077
1.554,0.014,3077
1.555,0.021,3077
1.556,0.015,3077
1.557,-0.006,3077
1.558,-0.024,3077
1.559,-0.056,3077
1.560,-0.121,3086
1.561,-0.138,3086
1.562,-0.144,3086
1.563,-0.138,3086
1.564,-0.124,3086
1.565,-0.106,3086
1.566,-0.085,3086
1.567,-0.054,3086
1.568,-0.031,3048
1.569,-0.013,3048
1.570,-0.005,3048
1.571,0.010,3048
1.572,0.007,3048
1.573,-0.014,3048
1.574,-0.031,3048
1.575,-0.056,3048
1.576,-0.090,3048
1.577,-0.125,3048
1.578,-0.166,3081
1.579,-0.209,3081
1.580,-0.274,3081
1.581,-0.282,3081
1.582,-0.271,3081
1.583,-0.249,3081
1.584,-0.224,3081
1.585,-0.191,3081
1.586,-0.186,3100
1.587,-0.130,3100
1.588,-0.109,3100
1.589,-0.100,3100
1.590,-0.096,3100
1.591,-0.111,3100
1.592,-0.131,3100
1.593,-0.169,3100
1.594,-0.209,3100
1.595,-0.246,3100
1.596,-0.276,3076
1.597,-0.302,3076
1.598,-0.323,3076
1.599,-0.326,3076
1.600,-0.299,3076
1.601,-0.281,3076
1.602,-0.251,3076
1.603,-0.226,3076
1.604,-0.186,3076
1.605,-0.161,3073
1.606,-0.139,3073
1.607,-0.130,3073
1.608,-0.131,3073
1.609,-0.136,3073
1.610,-0.151,3073
1.611,-0.184,3073
1.612,-0.211,3073
1.613,-0.247,3073
1.614,-0.276,3073
1.615,-0.304,3065
1.616,-0.330,3065
1.617,-0.343,3065
1.618,-0.362,3065
1.619,-0.334,3065
1.620,-0.284,3065
1.621,-0.256,3065
1.622,-0.216,3065
1.623,-0.174,3065
1.624,-0.136,3088
1.625,-0.110,3088
1.626,-0.092,3088
1.627,-0.089,3088
1.628,-0.090,3088
1.629,-0.113,3088
1.630,-0.141,3088
1.631,-0.175,3088
1.632,-0.214,3088
1.633,-0.255,3088
1.634,-0.287,3073
1.635,-0.334,3073
1.636,-0.344,3073
1.637,-0.334,3073
1.638,-0.321,3073
1.639,-0.286,3073
1.640,-0.210,3073
1.641,-0.174,3073
1.642,-0.135,3080
1.643,-0.109,3080
1.644,-0.089,3080
1.645,-0.081,3080
1.646,-0.086,3080
1.647,-0.096,3080
1.648,-0.121,3080
1.649,-0.161,3080
1.650,-0.191,3080
1.651,-0.226,3080
1.652,-0.264,3080
1.653,-0.291,3079
1.654,-0.311,3079
1.655,-0.328,3079
1.656,-0.328,3079
1.657,-0.314,3079
1.658,-0.296,3079
1.659,-0.269,3079
1.660,-0.194,3079
1.661,-0.169,3080
1.662,-0.139,3080
1.663,-0.145,3080
1.664,-0.154,3080
1.665,-0.186,3080
1.666,-0.225,3080
1.667,-0.268,3080
1.668,-0.311,3080
1.669,-0.356,3080
1.670,-0.401,3080
1.671,-0.431,3074
1.672,-0.453,3074
1.673,-0.461,3074
1.674,-0.446,3074
1.675,-0.410,3074
1.676,-0.354,3074
1.677,-0.282,3074
1.678,-0.203,3074
1.679,-0.066,3074
1.680,0.119,3056
1.681,0.311,3056
1.682,0.416,3056
1.683,0.515,3056
1.684,0.605,3056
1.685,0.699,3056
1.686,0.789,3056
1.687,0.889,3056
1.688,0.993,3056
1.689,1.116,3075
1.690,1.259,3075
1.691,1.430,3075
1.692,1.619,3075
1.693,1.824,3075
1.694,2.049,3075
1.695,2.256,3075
1.696,2.429,3075
1.697,2.529,3075
1.698,2.559,3075
1.699,2.551,3021
1.700,2.348,3021
1.701,2.126,3021
1.702,1.939,3021
1.703,1.699,3021
1.704,1.451,3021
1.705,1.194,3021
1.706,0.954,3021
1.707,0.728,3021
1.708,0.509,3051
1.709,0.296,3051
1.710,0.130,3051
1.711,-0.011,3051
1.712,-0.121,3051
1.713,-0.196,3051
1.714,-0.251,3051
1.715,-0.285,3051
1.716,-0.305,3051
1.717,-0.321,3051
1.718,-0.334,3062
1.719,-0.346,3062
1.720,-0.390,3062
1.721,-0.429,3062
1.722,-0.455,3062
1.723,-0.489,3062
1.724,-0.525,3062
1.725,-0.550,3062
1.726,-0.570,3062
1.727,-0.583,3068
1.728,-0.581,3068
1.729,-0.570,3068
1.730,-0.549,3068
1.731,-0.529,3068
1.732,-0.492,3068
1.733,-0.454,3068
1.734,-0.415,3068
1.735,-0.371,3068
1.736,-0.335,3068
1.737,-0.302,3036
1.738,-0.275,3036
1.739,-0.264,3036
1.740,-0.306,3036
1.741,-0.281,3036
1.742,-0.302,3036
1.743,-0.345,3036
1.744,-0.374,3036
1.745,-0.411,3036
1.746,-0.434,3076
1.747,-0.450,3076
1.748,-0.455,3076
1.749,-0.451,3076
1.750,-0.441,3076
1.751,-0.414,3076
1.752,-0.384,3076
1.753,-0.351,3076
1.754,-0.312,3076
1.755,-0.286,3076
1.756,-0.256,3057
1.757,-0.233,3057
1.758,-0.224,3057
1.759,-0.224,3057
1.760,-0.253,3057
1.761,-0.274,3057
1.762,-0.307,3057
1.763,-0.344,3057
1.764,-0.375,3057
1.765,-0.409,3081
1.766,-0.431,3081
1.767,-0.446,3081
1.768,-0.446,3081
1.769,-0.432,3081
1.770,-0.410,3081
1.771,-0.370,3081
1.772,-0.329,3081
1.773,-0.285,3081
1.774,-0.249,3081
1.775,-0.216,3103
1.776,-0.196,3103
1.777,-0.186,3103
1.778,-0.188,3103
1.779,-0.198,3103
1.780,-0.256,3103
1.781,-0.284,3103
1.782,-0.311,3103
1.783,-0.344,3103
1.784,-0.369,3044
1.785,-0.384,3044
1.786,-0.390,3044
1.787,-0.386,3044
1.788,-0.374,3044
1.789,-0.351,3044
1.790,-0.321,3044
1.791,-0.284,3044
1.792,-0.246,3044
1.793,-0.214,3044
1.794,-0.189,3082
1.795,-0.175,3082
1.796,-0.168,3082
1.797,-0.171,3082
1.798,-0.186,3082
1.799,-0.207,3082
1.800,-0.271,3082
1.801,-0.296,3082
1.802,-0.333,3082
1.803,-0.374,3090
1.804,-0.374,3090
1.805,-0.376,3090
1.806,-0.366,3090
1.807,-0.349,3090
1.808,-0.326,3090
1.809,-0.291,3090
1.810,-0.264,3090
1.811,-0.225,3090
1.812,-0.198,3090
1.813,-0.174,3079
1.814,-0.164,3079
1.815,-0.146,3079
1.816,-0.149,3079
1.817,-0.164,3079
1.818,-0.186,3079
1.819,-0.216,3079
1.820,-0.294,3079
1.821,-0.325,3079
1.822,-0.346,3074
1.823,-0.362,3074
1.824,-0.366,3074
1.825,-0.356,3074
1.826,-0.334,3074
1.827,-0.301,3074
1.828,-0.269,3074
1.829,-0.230,3074
1.830,-0.190,3074
1.831,-0.151,3074
1.832,-0.124,3094
1.833,-0.100,3094
1.834,-0.089,3094
1.835,-0.086,3094
1.836,-0.091,3094
1.837,-0.109,3094
1.838,-0.131,3094
1.839,-0.166,3094
1.840,-0.241,3094
1.841,-0.261,3089
1.842,-0.284,3089
1.843,-0.289,3089
1.844,-0.284,3089
1.845,-0.269,3089
1.846,-0.244,3089
1.847,-0.211,3089
1.848,-0.174,3089
1.849,-0.141,3089
1.850,-0.106,3089
1.851,-0.081,3056
1.852,-0.061,3056
1.853,-0.051,3056
1.854,-0.052,3056
1.855,-0.056,3056
1.856,-0.074,3056
1.857,-0.104,3056
1.858,-0.134,3056
1.859,-0.172,3056
1.860,-0.246,3044
1.861,-0.280,3044
1.862,-0.281,3044
1.863,-0.266,3044
1.864,-0.244,3044
1.865,-0.206,3044
1.866,-0.171,3044
1.867,-0.130,3044
1.868,-0.095,3044
1.869,-0.066,3079
1.870,-0.044,3079
1.871,-0.034,3079
1.872,-0.031,3079
1.873,-0.043,3079
1.874,-0.062,3079
1.875,-0.086,3079
1.876,-0.110,3079
1.877,-0.134,3079
1.878,-0.166,3079
1.879,-0.190,3076
1.880,-0.216,3076
1.881,-0.186,3076
1.882,-0.161,3076
1.883,-0.114,3076
1.884,-0.086,3076
1.885,-0.054,3076
1.886,-0.029,3076
1.887,-0.010,3069
1.888,-0.003,3069
1.889,0.007,3069
1.890,-0.006,3069
1.891,-0.015,3069
1.892,-0.035,3069
1.893,-0.064,3069
1.894,-0.091,3069
1.895,-0.121,3069
1.896,-0.144,3069
1.897,-0.175,3073
1.898,-0.191,3073
1.899,-0.191,3073
1.900,-0.169,3073
1.901,-0.142,3073
1.902,-0.110,3073
1.903,-0.070,3073
1.904,-0.034,3073
1.905,0.009,3073
1.906,0.036,3073
1.907,0.046,3068
1.908,0.056,3068
1.909,0.051,3068
1.910,0.036,3068
1.911,0.013,3068
1.912,-0.026,3068
1.913,-0.065,3068
1.914,-0.101,3068
1.915,-0.129,3068
1.916,-0.151,3068
1.917,-0.166,3023
1.918,-0.166,3023
1.919,-0.154,3023
1.920,-0.101,3023
1.921,-0.071,3023
1.922,-0.036,3023
1.923,0.010,3023
1.924,0.040,3023
1.925,0.084,3070
1.926,0.104,3070
1.927,0.091,3070
1.928,0.066,3070
1.929,0.036,3070
1.930,-0.004,3070
1.931,-0.044,3070
1.932,-0.084,3070
1.933,-0.110,3070
1.934,-0.141,3070
1.935,-0.164,3043
1.936,-0.176,3043
1.937,-0.176,3043
1.938,-0.169,3043
1.939,-0.149,3043
1.940,-0.091,3043
1.941,-0.066,3043
1.942,-0.037,3043
1.943,-0.024,3043
1.944,-0.015,3048
1.945,-0.016,3048
1.946,-0.024,3048
1.947,-0.049,3048
1.948,-0.069,3048
1.949,-0.105,3048
1.950,-0.144,3048
1.951,-0.184,3048
1.952,-0.217,3048
1.953,-0.256,3048
1.954,-0.284,3059
1.955,-0.302,3059
1.956,-0.310,3059
1.957,-0.304,3059
1.958,-0.281,3059
1.959,-0.254,3059
1.960,-0.185,3059
1.961,-0.166,3059
1.962,-0.147,3059
1.963,-0.125,3054
1.964,-0.126,3054
1.965,-0.138,3054
1.966,-0.169,3054
1.967,-0.196,3054
1.968,-0.234,3054
1.969,-0.271,3054
1.970,-0.310,3054
1.971,-0.349,3054
1.972,-0.374,3087
1.973,-0.390,3087
1.974,-0.401,3087
1.975,-0.386,3087
1.976,-0.371,3087
1.977,-0.346,3087
1.978,-0.321,3087
1.979,-0.286,3087
1.980,-0.216,3087
1.981,-0.204,3066
1.982,-0.191,3066
1.983,-0.195,3066
1.984,-0.210,3066
1.985,-0.229,3066
1.986,-0.263,3066
1.987,-0.286,3066
1.988,-0.312,3066
1.989,-0.347,3066
1.990,-0.369,3066
1.991,-0.381,3061
1.992,-0.386,3061
1.993,-0.386,3061
1.994,-0.374,3061
1.995,-0.355,3061
1.996,-0.341,3061
1.997,-0.307,3061
1.998,-0.282,3061
1.999,-0.261,3061
2.000,-0.233,3063
2.001,-0.247,3063
2.002,-0.265,3063
2.003,-0.286,3063
2.004,-0.312,3063
2.005,-0.350,3063
2.006,-0.383,3063
2.007,-0.411,3063
2.008,-0.431,3063
2.009,-0.441,3050
2.010,-0.416,3050
2.011,-0.401,3050
2.012,-0.352,3050
2.013,-0.324,3050
2.014,-0.286,3050
2.015,-0.256,3050
2.016,-0.226,3050
2.017,-0.204,3050
2.018,-0.186,3079
2.019,-0.190,3079
2.020,-0.215,3079
2.021,-0.242,3079
2.022,-0.280,3079
2.023,-0.321,3079
2.024,-0.356,3079
2.025,-0.388,3079
2.026,-0.421,3079
2.027,-0.436,3096
2.028,-0.454,3096
2.029,-0.451,3096
2.030,-0.436,3096
2.031,-0.414,3096
2.032,-0.378,3096
2.033,-0.346,3096
2.034,-0.305,3096
2.035,-0.269,3096
2.036,-0.230,3096
2.037,-0.210,3072
2.038,-0.194,3072
2.039,-0.194,3072
2.040,-0.246,3072
2.041,-0.274,3072
2.042,-0.311,3072
2.043,-0.350,3072
2.044,-0.384,3072
2.045,-0.412,3072
2.046,-0.427,3090
2.047,-0.431,3090
2.048,-0.424,3090
2.049,-0.401,3090
2.050,-0.366,3090
2.051,-0.326,3090
2.052,-0.282,3090
2.053,-0.241,3090
2.054,-0.201,3090
2.055,-0.168,3090
2.056,-0.146,3096
2.057,-0.138,3096
2.058,-0.146,3096
2.059,-0.169,3096
2.060,-0.251,3096
2.061,-0.334,3096
2.062,-0.369,3096
2.063,-0.391,3096
2.064,-0.411,3087
2.065,-0.414,3087
2.066,-0.406,3087
2.067,-0.384,3087
2.068,-0.356,3087
2.069,-0.324,3087
2.070,-0.286,3087
2.071,-0.246,3087
2.072,-0.211,3087
2.073,-0.184,3087
2.074,-0.161,3085
2.075,-0.149,3085
2.076,-0.146,3085
2.077,-0.161,3085
2.078,-0.184,3085
2.079,-0.210,3085
2.080,-0.291,3085
2.081,-0.314,3085
2.082,-0.341,3085
2.083,-0.357,3076
2.084,-0.356,3076
2.085,-0.351,3076
2.086,-0.324,3076
2.087,-0.296,3076
2.088,-0.264,3076
2.089,-0.226,3076
2.090,-0.198,3076
2.091,-0.172,3076
2.092,-0.161,3085
2.093,-0.160,3085
2.094,-0.161,3085
2.095,-0.186,3085
2.096,-0.209,3085
2.097,-0.244,3085
2.098,-0.280,3085
2.099,-0.312,3085
2.100,-0.379,3085
2.101,-0.389,3090
2.102,-0.375,3090
2.103,-0.357,3090
2.104,-0.334,3090
2.105,-0.297,3090
2.106,-0.270,3090
2.107,-0.244,3090
2.108,-0.214,3090
2.109,-0.199,3090
2.110,-0.176,3069
2.111,-0.171,3069
2.112,-0.175,3069
2.113,-0.189,3069
2.114,-0.209,3069
2.115,-0.233,3069
2.116,-0.269,3069
2.117,-0.304,3069
2.118,-0.336,3069
2.119,-0.357,3069
2.120,-0.386,3070
2.121,-0.371,3070
2.122,-0.351,3070
2.123,-0.326,3070
2.124,-0.291,3070
2.125,-0.254,3070
2.126,-0.216,3070
2.127,-0.191,3070
2.128,-0.166,3091
2.129,-0.154,3091
2.130,-0.154,3091
2.131,-0.171,3091
2.132,-0.186,3091
2.133,-0.211,3091
2.134,-0.245,3091
2.135,-0.280,3091
2.136,-0.307,3091
2.137,-0.341,3091
2.138,-0.354,3091
2.139,-0.365,3067
2.140,-0.349,3067
2.141,-0.330,3067
2.142,-0.304,3067
2.143,-0.274,3067
2.144,-0.246,3067
2.145,-0.216,3067
2.146,-0.190,3067
2.147,-0.174,3067
2.148,-0.164,3080
2.149,-0.164,3080
2.150,-0.176,3080
2.151,-0.195,3080
2.152,-0.224,3080
2.153,-0.263,3080
2.154,-0.290,3080
2.155,-0.321,3080
2.156,-0.341,3080
2.157,-0.351,3080
2.158,-0.351,3070
2.159,-0.346,3070
2.160,-0.309,3070
2.161,-0.286,3070
2.162,-0.256,3070
2.163,-0.226,3070
2.164,-0.201,3070
2.165,-0.181,3070
2.166,-0.166,3070
2.167,-0.161,3084
2.168,-0.169,3084
2.169,-0.186,3084
2.170,-0.211,3084
2.171,-0.249,3084
2.172,-0.296,3084
2.173,-0.325,3084
2.174,-0.354,3084
2.175,-0.376,3084
2.176,-0.389,3084
2.177,-0.393,3064
2.178,-0.384,3064
2.179,-0.365,3064
2.180,-0.291,3064
2.181,-0.261,3064
2.182,-0.224,3064
2.183,-0.188,3064
2.184,-0.154,3064
2.185,-0.136,3064
2.186,-0.135,3071
2.187,-0.141,3071
2.188,-0.161,3071
2.189,-0.189,3071
2.190,-0.224,3071
2.191,-0.266,3071
2.192,-0.306,3071
2.193,-0.346,3071
2.194,-0.381,3071
2.195,-0.412,3071
2.196,-0.429,3068
2.197,-0.436,3068
2.198,-0.432,3068
2.199,-0.416,3068
2.200,-0.354,3068
2.201,-0.324,3068
2.202,-0.285,3068
2.203,-0.271,3068
2.204,-0.254,3068
2.205,-0.246,3061
2.206,-0.245,3061
2.207,-0.261,3061
2.208,-0.276,3061
2.209,-0.306,3061
2.210,-0.354,3061
2.211,-0.406,3061
2.212,-0.451,3061
2.213,-0.489,3061
2.214,-0.510,3061
2.215,-0.517,3067
2.216,-0.521,3067
2.217,-0.505,3067
2.218,-0.482,3067
2.219,-0.450,3067
2.220,-0.381,3067
2.221,-0.356,3067
2.222,-0.325,3067
2.223,-0.304,3067
2.224,-0.299,3068
2.225,-0.302,3068
2.226,-0.314,3068
2.227,-0.341,3068
2.228,-0.367,3068
2.229,-0.401,3068
2.230,-0.432,3068
2.231,-0.466,3068
2.232,-0.496,3068
2.233,-0.515,3068
2.234,-0.525,3077
2.235,-0.516,3077
2.236,-0.506,3077
2.237,-0.484,3077
2.238,-0.450,3077
2.239,-0.412,3077
2.240,-0.344,3077
2.241,-0.324,3077
2.242,-0.305,3077
2.243,-0.301,3106
2.244,-0.302,3106
2.245,-0.320,3106
2.246,-0.341,3106
2.247,-0.369,3106
2.248,-0.406,3106
2.249,-0.440,3106
2.250,-0.471,3106
2.251,-0.492,3106
2.252,-0.506,3106
2.253,-0.512,3074
2.254,-0.510,3074
2.255,-0.494,3074
2.256,-0.471,3074
2.257,-0.449,3074
2.258,-0.422,3074
2.259,-0.384,3074
2.260,-0.325,3074
2.261,-0.306,3074
2.262,-0.297,3077
2.263,-0.296,3077
2.264,-0.306,3077
2.265,-0.329,3077
2.266,-0.355,3077
2.267,-0.391,3077
2.268,-0.429,3077
2.269,-0.463,3077
2.270,-0.490,3077
2.271,-0.509,3077
2.272,-0.514,3082
2.273,-0.511,3082
2.274,-0.501,3082
2.275,-0.474,3082
2.276,-0.446,3082
2.277,-0.411,3082
2.278,-0.375,3082
2.279,-0.341,3082
2.280,-0.275,3082
2.281,-0.268,3058
2.282,-0.266,3058
2.283,-0.271,3058
2.284,-0.292,3058
2.285,-0.324,3058
2.286,-0.359,3058
2.287,-0.394,3058
2.288,-0.432,3058
2.289,-0.456,3058
2.290,-0.474,3058
2.291,-0.484,3053
2.292,-0.475,3053
2.293,-0.459,3053
2.294,-0.434,3053
2.295,-0.405,3053
2.296,-0.365,3053
2.297,-0.333,3053
2.298,-0.297,3053
2.299,-0.271,3053
2.300,-0.249,3089
2.301,-0.263,3089
2.302,-0.284,3089
2.303,-0.307,3089
2.304,-0.336,3089
2.305,-0.366,3089
2.306,-0.394,3089
2.307,-0.414,3089
2.308,-0.426,3089
2.309,-0.424,3075
2.310,-0.410,3075
2.311,-0.386,3075
2.312,-0.351,3075
2.313,-0.314,3075
2.314,-0.276,3075
2.315,-0.244,3075
2.316,-0.211,3075
2.317,-0.189,3075
2.318,-0.176,3075
2.319,-0.184,3083
2.320,-0.226,3083
2.321,-0.256,3083
2.322,-0.290,3083
2.323,-0.329,3083
2.324,-0.366,3083
2.325,-0.401,3083
2.326,-0.424,3083
2.327,-0.401,3083
2.328,-0.436,3090
2.329,-0.430,3090
2.330,-0.412,3090
2.331,-0.379,3090
2.332,-0.344,3090
2.333,-0.305,3090
2.334,-0.265,3090
2.335,-0.226,3090
2.336,-0.189,3090
2.337,-0.164,3090
2.338,-0.144,3081
2.339,-0.135,3081
2.340,-0.176,3081
2.341,-0.205,3081
2.342,-0.244,3081
2.343,-0.274,3081
2.344,-0.306,3081
2.345,-0.326,3081
2.346,-0.341,3081
2.347,-0.346,3068
2.348,-0.344,3068
2.349,-0.326,3068
2.350,-0.291,3068
2.351,-0.255,3068
2.352,-0.216,3068
2.353,-0.181,3068
2.354,-0.144,3068
2.355,-0.115,3068
2.356,-0.096,3068
2.357,-0.091,3065
2.358,-0.092,3065
2.359,-0.109,3065
2.360,-0.151,3065
2.361,-0.184,3065
2.362,-0.217,3065
2.363,-0.254,3065
2.364,-0.281,3065
2.365,-0.305,3065
2.366,-0.321,3078
2.367,-0.330,3078
2.368,-0.324,3078
2.369,-0.302,3078
2.370,-0.271,3078
2.371,-0.241,3078
2.372,-0.191,3078
2.373,-0.146,3078
2.374,-0.106,3078
2.375,-0.070,3078
2.376,-0.049,3069
2.377,-0.041,3069
2.378,-0.044,3069
2.379,-0.054,3069
2.380,-0.102,3069
2.381,-0.124,3069
2.382,-0.151,3069
2.383,-0.176,3069
2.384,-0.191,3069
2.385,-0.196,3069
2.386,-0.196,3068
2.387,-0.189,3068
2.388,-0.172,3068
2.389,-0.147,3068
2.390,-0.122,3068
2.391,-0.050,3068
2.392,-0.064,3068
2.393,-0.046,3068
2.394,-0.031,3068
2.395,-0.029,3068
2.396,-0.036,3071
2.397,-0.051,3071
2.398,-0.074,3071
2.399,-0.110,3071
2.400,-0.206,3071
2.401,-0.244,3071
2.402,-0.281,3071
2.403,-0.297,3071
2.404,-0.311,3071
2.405,-0.321,3075
2.406,-0.305,3075
2.407,-0.281,3075
2.408,-0.254,3075
2.409,-0.224,3075
2.410,-0.194,3075
2.411,-0.168,3075
2.412,-0.141,3075
2.413,-0.129,3075
2.414,-0.126,3075
2.415,-0.136,3070
2.416,-0.152,3070
2.417,-0.175,3070
2.418,-0.204,3070
2.419,-0.233,3070
2.420,-0.321,3070
2.421,-0.362,3070
2.422,-0.366,3070
2.423,-0.362,3046
2.424,-0.344,3046
2.425,-0.310,3046
2.426,-0.280,3046
2.427,-0.244,3046
2.428,-0.205,3046
2.429,-0.171,3046
2.430,-0.146,3046
2.431,-0.131,3046
2.432,-0.129,3046
2.433,-0.135,3054
2.434,-0.146,3054
2.435,-0.174,3054
2.436,-0.204,3054
2.437,-0.241,3054
2.438,-0.271,3054
2.439,-0.305,3054
2.440,-0.343,3054
2.441,-0.346,3054
2.442,-0.341,3063
2.443,-0.329,3063
2.444,-0.306,3063
2.445,-0.284,3063
2.446,-0.254,3063
2.447,-0.216,3063
2.448,-0.184,3063
2.449,-0.151,3063
2.450,-0.129,3063
2.451,-0.116,3063
2.452,-0.124,3068
2.453,-0.129,3068
2.454,-0.146,3068
2.455,-0.174,3068
2.456,-0.204,3068
2.457,-0.233,3068
2.458,-0.264,3068
2.459,-0.289,3068
2.460,-0.304,3068
2.461,-0.296,3057
2.462,-0.286,3057
2.463,-0.271,3057
2.464,-0.246,3057
2.465,-0.211,3057
2.466,-0.185,3057
2.467,-0.151,3057
2.468,-0.129,3057
2.469,-0.115,3057
2.470,-0.109,3057
2.471,-0.111,3060
2.472,-0.126,3060
2.473,-0.145,3060
2.474,-0.172,3060
2.475,-0.206,3060
2.476,-0.234,3060
2.477,-0.265,3060
2.478,-0.286,3060
2.479,-0.302,3060
2.480,-0.296,3063
2.481,-0.269,3063
2.482,-0.250,3063
2.483,-0.228,3063
2.484,-0.204,3063
2.485,-0.184,3063
2.486,-0.170,3063
2.487,-0.164,3063
2.488,-0.171,3063
2.489,-0.189,3069
2.490,-0.209,3069
2.491,-0.242,3069
2.492,-0.276,3069
2.493,-0.310,3069
2.494,-0.346,3069
2.495,-0.372,3069
2.496,-0.393,3069
2.497,-0.406,3069
2.498,-0.403,3069
2.499,-0.386,3083
2.500,-0.294,3083
2.501,-0.244,3083
2.502,-0.164,3083
2.503,-0.085,3083
2.504,0.019,3083
2.505,0.111,3083
2.506,0.211,3083
2.507,0.314,3083
2.508,0.424,3076
2.509,0.529,3076
2.510,0.629,3076
2.511,0.734,3076
2.512,0.838,3076
2.513,0.945,3076
2.514,1.069,3076
2.515,1.196,3076
2.516,1.350,3076
2.517,1.519,3076
2.518,1.709,3081
2.519,1.909,3081
2.520,2.310,3081
2.521,2.429,3081
2.522,2.476,3081
2.523,2.494,3081
2.524,2.449,3081
2.525,2.351,3081
2.526,2.206,3081
2.527,2.030,3079
2.528,1.817,3079
2.529,1.594,3079
2.530,1.354,3079
2.531,1.119,3079
2.532,0.895,3079
2.533,0.674,3079
2.534,0.459,3079
2.535,0.269,3079
2.536,0.092,3079
2.537,-0.049,3105
2.538,-0.164,3105
2.539,-0.249,3105
2.540,-0.356,3105
2.541,-0.374,3105
2.542,-0.386,3105
2.543,-0.404,3105
2.544,-0.407,3105
2.545,-0.371,3105
2.546,-0.432,3063
2.547,-0.454,3063
2.548,-0.484,3063
2.549,-0.514,3063
2.550,-0.545,3063
2.551,-0.571,3063
2.552,-0.591,3063
2.553,-0.606,3063
2.554,-0.606,3063
2.555,-0.596,3063
2.556,-0.575,3096
2.557,-0.546,3096
2.558,-0.509,3096
2.559,-0.466,3096
2.560,-0.362,3096
2.561,-0.324,3096
2.562,-0.280,3096
2.563,-0.254,3096
2.564,-0.242,3096
2.565,-0.230,3088
2.566,-0.244,3088
2.567,-0.256,3088
2.568,-0.284,3088
2.569,-0.321,3088
2.570,-0.349,3088
2.571,-0.376,3088
2.572,-0.406,3088
2.573,-0.425,3088
2.574,-0.429,3088
2.575,-0.426,3094
2.576,-0.414,3094
2.577,-0.391,3094
2.578,-0.369,3094
2.579,-0.335,3094
2.580,-0.268,3094
2.581,-0.246,3094
2.582,-0.226,3094
2.583,-0.216,3094
2.584,-0.221,3084
2.585,-0.235,3084
2.586,-0.256,3084
2.587,-0.289,3084
2.588,-0.328,3084
2.589,-0.362,3084
2.590,-0.403,3084
2.591,-0.424,3084
2.592,-0.441,3084
2.593,-0.443,3084
2.594,-0.431,3072
2.595,-0.414,3072
2.596,-0.323,3072
2.597,-0.266,3072
2.598,-0.231,3072
2.599,-0.204,3072
2.600,-0.181,3072
2.601,-0.184,3059
2.602,-0.201,3059
2.603,-0.224,3059
2.604,-0.264,3059
2.605,-0.292,3059
2.606,-0.330,3059
2.607,-0.364,3059
2.608,-0.386,3059
2.609,-0.407,3059
2.610,-0.411,3059
2.611,-0.407,3075
2.612,-0.389,3075
2.613,-0.367,3075
2.614,-0.336,3075
2.615,-0.294,3075
2.616,-0.258,3075
2.617,-0.221,3075
2.618,-0.189,3075
2.619,-0.169,3075
2.620,-0.152,3063
2.621,-0.194,3063
2.622,-0.217,3063
2.623,-0.253,3063
2.624,-0.281,3063
2.625,-0.304,3063
2.626,-0.323,3063
2.627,-0.328,3063
2.628,-0.324,3063
2.629,-0.311,3063
2.630,-0.297,3012
2.631,-0.276,3012
2.632,-0.251,3012
2.633,-0.219,3012
2.634,-0.189,3012
2.635,-0.164,3012
2.636,-0.136,3012
2.637,-0.126,3012
2.638,-0.124,3012
2.639,-0.134,3063
2.640,-0.184,3063
2.641,-0.205,3063
2.642,-0.231,3063
2.643,-0.264,3063
2.644,-0.285,3063
2.645,-0.297,3063
2.646,-0.304,3063
2.647,-0.305,3063
2.648,-0.292,3063
2.649,-0.274,3072
2.650,-0.256,3072
2.651,-0.226,3072
2.652,-0.196,3072
2.653,-0.171,3072
2.654,-0.144,3072
2.655,-0.122,3072
2.656,-0.106,3072
2.657,-0.101,3072
2.658,-0.101,3072
2.659,-0.110,3060
2.660,-0.169,3060
2.661,-0.204,3060
2.662,-0.226,3060
2.663,-0.255,3060
2.664,-0.276,3060
2.665,-0.294,3060
2.666,-0.302,3060
2.667,-0.301,3060
2.668,-0.286,3053
2.669,-0.307,3053
2.670,-0.228,3053
2.671,-0.190,3053
2.672,-0.149,3053
2.673,-0.121,3053
2.674,-0.086,3053
2.675,-0.061,3053
2.676,-0.046,3053
2.677,-0.037,3053
2.678,-0.044,3054
2.679,-0.062,3054
2.680,-0.130,3054
2.681,-0.196,3054
2.682,-0.216,3054
2.683,-0.231,3054
2.684,-0.244,3054
2.685,-0.234,3054
2.686,-0.221,3076
2.687,-0.191,3076
2.688,-0.164,3076
2.689,-0.126,3076
2.690,-0.091,3076
2.691,-0.056,3076
2.692,-0.034,3076
2.693,-0.021,3076
2.694,-0.011,3076
2.695,-0.013,3076
2.696,-0.024,3053
2.697,-0.041,3053
2.698,-0.064,3053
2.699,-0.142,3053
2.700,-0.161,3053
2.701,-0.174,3053
2.702,-0.186,3053
2.703,-0.194,3053
2.704,-0.186,3053
2.705,-0.171,3064
2.706,-0.144,3064
2.707,-0.111,3064
2.708,-0.074,3064
2.709,-0.036,3064
2.710,-0.009,3064
2.711,0.019,3064
2.712,0.036,3064
2.713,0.046,3064
2.714,0.046,3064
2.715,0.034,3064
2.716,0.011,3064
2.717,-0.021,3064
2.718,-0.049,3064
2.719,-0.071,3064
2.720,-0.124,3064
2.721,-0.131,3064
2.722,-0.144,3064
2.723,-0.141,3064
2.724,-0.129,3074
2.725,-0.109,3074
2.726,-0.083,3074
2.727,-0.048,3074
2.728,-0.013,3074
2.729,0.029,3074
2.730,0.064,3074
2.731,0.090,3074
2.732,0.106,3074
2.733,0.109,3074
2.734,0.098,3077
2.735,0.071,3077
2.736,0.037,3077
2.737,-0.006,3077
2.738,-0.045,3077
2.739,-0.086,3077
2.740,-0.146,3077
2.741,-0.152,3077
2.742,-0.151,3077
2.743,-0.136,3072
2.744,-0.111,3072
2.745,-0.084,3072
2.746,-0.045,3072
2.747,0.006,3072
2.748,0.044,3072
2.749,0.076,3072
2.750,0.105,3072
2.751,0.122,3072
2.752,0.124,3072
2.753,0.111,3078
2.754,0.087,3078
2.755,0.054,3078
2.756,0.011,3078
2.757,-0.045,3078
2.758,-0.090,3078
2.759,-0.125,3078
2.760,-0.171,3078
2.761,-0.174,3078
2.762,-0.166,3064
2.763,-0.141,3064
2.764,-0.111,3064
2.765,-0.070,3064
2.766,-0.031,3064
2.767,0.010,3064
2.768,0.034,3064
2.769,0.050,3064
2.770,0.051,3064
2.771,0.037,3064
2.772,0.021,3068
2.773,-0.021,3068
2.774,-0.054,3068
2.775,-0.096,3068
2.776,-0.141,3068
2.777,-0.184,3068
2.778,-0.215,3068
2.779,-0.246,3068
2.780,-0.261,3068
2.781,-0.249,3085
2.782,-0.225,3085
2.783,-0.196,3085
2.784,-0.165,3085
2.785,-0.128,3085
2.786,-0.094,3085
2.787,-0.070,3085
2.788,-0.059,3085
2.789,-0.054,3085
2.790,-0.069,3085
2.791,-0.090,3057
2.792,-0.126,3057
2.793,-0.169,3057
2.794,-0.214,3057
2.795,-0.266,3057
2.796,-0.309,3057
2.797,-0.350,3057
2.798,-0.375,3057
2.799,-0.386,3057
2.800,-0.365,3079
2.801,-0.304,3079
2.802,-0.266,3079
2.803,-0.226,3079
2.804,-0.194,3079
2.805,-0.171,3079
2.806,-0.161,3079
2.807,-0.154,3079
2.808,-0.169,3079
2.809,-0.188,3083
2.810,-0.221,3083
2.811,-0.256,3083
2.812,-0.296,3083
2.813,-0.341,3083
2.814,-0.371,3083
2.815,-0.405,3083
2.816,-0.416,3083
2.817,-0.426,3083
2.818,-0.411,3083
2.819,-0.388,3061
2.820,-0.324,3061
2.821,-0.281,3061
2.822,-0.254,3061
2.823,-0.229,3061
2.824,-0.191,3061
2.825,-0.185,3061
2.826,-0.186,3061
2.827,-0.196,3061
2.828,-0.216,3075
2.829,-0.251,3075
2.830,-0.286,3075
2.831,-0.326,3075
2.832,-0.357,3075
2.833,-0.394,3075
2.834,-0.416,3075
2.835,-0.430,3075
2.836,-0.426,3075
2.837,-0.414,3075
2.838,-0.386,3055
2.839,-0.356,3055
2.840,-0.274,3055
2.841,-0.245,3055
2.842,-0.206,3055
2.843,-0.181,3055
2.844,-0.171,3055
2.845,-0.170,3055
2.846,-0.181,3055
2.847,-0.198,3078
2.848,-0.228,3078
2.849,-0.256,3078
2.850,-0.289,3078
2.851,-0.326,3078
2.852,-0.354,3078
2.853,-0.384,3078
2.854,-0.406,3078
2.855,-0.416,3078
2.856,-0.417,3078
2.857,-0.409,3058
2.858,-0.383,3058
2.859,-0.356,3058
2.860,-0.275,3058
2.861,-0.251,3058
2.862,-0.221,3058
2.863,-0.207,3058
2.864,-0.201,3058
2.865,-0.206,3058
2.866,-0.223,3074
2.867,-0.246,3074
2.868,-0.273,3074
2.869,-0.306,3074
2.870,-0.341,3074
2.871,-0.366,3074
2.872,-0.384,3074
2.873,-0.391,3074
2.874,-0.394,3074
2.875,-0.383,3074
2.876,-0.362,3074
2.877,-0.336,3078
2.878,-0.304,3078
2.879,-0.269,3078
2.880,-0.194,3078
2.881,-0.168,3078
2.882,-0.146,3078
2.883,-0.136,3078
2.884,-0.144,3078
2.885,-0.161,3078
2.886,-0.185,3079
2.887,-0.212,3079
2.888,-0.250,3079
2.889,-0.281,3079
2.890,-0.311,3079
2.891,-0.335,3079
2.892,-0.351,3079
2.893,-0.356,3079
2.894,-0.354,3079
2.895,-0.344,3079
2.896,-0.312,3072
2.897,-0.289,3072
2.898,-0.249,3072
2.899,-0.214,3072
2.900,-0.161,3072
2.901,-0.146,3072
2.902,-0.146,3072
2.903,-0.152,3072
2.904,-0.174,3066
2.905,-0.204,3066
2.906,-0.241,3066
2.907,-0.271,3066
2.908,-0.310,3066
2.909,-0.344,3066
2.910,-0.366,3066
2.911,-0.374,3066
2.912,-0.371,3066
2.913,-0.356,3066
2.914,-0.334,3066
2.915,-0.302,3059
2.916,-0.266,3059
2.917,-0.230,3059
2.918,-0.195,3059
2.919,-0.165,3059
2.920,-0.131,3059
2.921,-0.131,3059
2.922,-0.142,3059
2.923,-0.161,3059
2.924,-0.188,3068
2.925,-0.214,3068
2.926,-0.247,3068
2.927,-0.275,3068
2.928,-0.304,3068
2.929,-0.326,3068
2.930,-0.334,3068
2.931,-0.336,3068
2.932,-0.329,3068
2.933,-0.306,3068
2.934,-0.275,3056
2.935,-0.246,3056
2.936,-0.210,3056
2.937,-0.176,3056
2.938,-0.146,3056
2.939,-0.121,3056
2.940,-0.100,3056
2.941,-0.129,3056
2.942,-0.161,3064
2.943,-0.193,3064
2.944,-0.230,3064
2.945,-0.269,3064
2.946,-0.304,3064
2.947,-0.329,3064
2.948,-0.336,3064
2.949,-0.335,3064
2.950,-0.330,3064
2.951,-0.306,3064
2.952,-0.281,3021
2.953,-0.247,3021
2.954,-0.210,3021
2.955,-0.177,3021
2.956,-0.149,3021
2.957,-0.130,3021
2.958,-0.121,3021
2.959,-0.113,3021
2.960,-0.146,3021
2.961,-0.169,3066
2.962,-0.196,3066
2.963,-0.226,3066
2.964,-0.253,3066
2.965,-0.279,3066
2.966,-0.296,3066
2.967,-0.306,3066
2.968,-0.305,3066
2.969,-0.291,3066
2.970,-0.275,3066
2.971,-0.246,3055
2.972,-0.216,3055
2.973,-0.185,3055
2.974,-0.150,3055
2.975,-0.126,3055
2.976,-0.104,3055
2.977,-0.094,3055
2.978,-0.101,3055
2.979,-0.114,3055
2.980,-0.176,3055
2.981,-0.254,3055
2.982,-0.291,3055
2.983,-0.326,3055
2.984,-0.354,3055
2.985,-0.374,3055
2.986,-0.376,3055
2.987,-0.374,3055
2.988,-0.351,3055
2.989,-0.329,3075
2.990,-0.294,3075
2.991,-0.256,3075
2.992,-0.216,3075
2.993,-0.186,3075
2.994,-0.161,3075
2.995,-0.144,3075
2.996,-0.134,3075
2.997,-0.131,3075
2.998,-0.141,3075
2.999,-0.164,3062
3.000,-0.242,3062
3.001,-0.271,3062
3.002,-0.306,3062
3.003,-0.341,3062
3.004,-0.356,3062
3.005,-0.361,3062
3.006,-0.354,3062
3.007,-0.334,3062
3.008,-0.306,3093
3.009,-0.276,3093
3.010,-0.245,3093
3.011,-0.209,3093
3.012,-0.186,3093
3.013,-0.164,3093
3.014,-0.145,3093
3.015,-0.136,3093
3.016,-0.144,3093
3.017,-0.164,3093
3.018,-0.186,3104
3.019,-0.209,3104
3.020,-0.273,3104
3.021,-0.304,3104
3.022,-0.324,3104
3.023,-0.336,3104
3.024,-0.346,3104
3.025,-0.346,3104
3.026,-0.329,3104
3.027,-0.304,3088
3.028,-0.274,3088
3.029,-0.246,3088
3.030,-0.209,3088
3.031,-0.181,3088
3.032,-0.160,3088
3.033,-0.138,3088
3.034,-0.133,3088
3.035,-0.136,3088
3.036,-0.151,3088
3.037,-0.181,3089
3.038,-0.211,3089
3.039,-0.250,3089
3.040,-0.331,3089
3.041,-0.346,3089
3.042,-0.367,3089
3.043,-0.374,3089
3.044,-0.375,3089
3.045,-0.361,3089
3.046,-0.343,3080
3.047,-0.304,3080
3.048,-0.269,3080
3.049,-0.226,3080
3.050,-0.193,3080
3.051,-0.170,3080
3.052,-0.149,3080
3.053,-0.144,3080
3.054,-0.146,3080
3.055,-0.166,3080
3.056,-0.191,3089
3.057,-0.221,3089
3.058,-0.261,3089
3.059,-0.294,3089
3.060,-0.362,3089
3.061,-0.374,3089
3.062,-0.381,3089
3.063,-0.375,3089
3.064,-0.364,3089
3.065,-0.334,3078
3.066,-0.296,3078
3.067,-0.264,3078
3.068,-0.221,3078
3.069,-0.186,3078
3.070,-0.149,3078
3.071,-0.130,3078
3.072,-0.116,3078
3.073,-0.124,3078
3.074,-0.130,3078
3.075,-0.154,3071
3.076,-0.186,3071
3.077,-0.215,3071
3.078,-0.247,3071
3.079,-0.281,3071
3.080,-0.331,3071
3.081,-0.341,3071
3.082,-0.341,3071
3.083,-0.336,3071
3.084,-0.321,3096
3.085,-0.299,3096
3.086,-0.274,3096
3.087,-0.249,3096
3.088,-0.216,3096
3.089,-0.190,3096
3.090,-0.170,3096
3.091,-0.149,3096
3.092,-0.147,3096
3.093,-0.149,3096
3.094,-0.184,3069
3.095,-0.214,3069
3.096,-0.249,3069
3.097,-0.284,3069
3.098,-0.310,3069
3.099,-0.343,3069
3.100,-0.366,3069
3.101,-0.357,3069
3.102,-0.341,3069
3.103,-0.312,3076
3.104,-0.287,3076
3.105,-0.250,3076
3.106,-0.210,3076
3.107,-0.182,3076
3.108,-0.151,3076
3.109,-0.135,3076
3.110,-0.131,3076
3.111,-0.134,3076
3.112,-0.149,3076
3.113,-0.176,3076
3.114,-0.206,3090
3.115,-0.241,3090
3.116,-0.268,3090
3.117,-0.291,3090
3.118,-0.311,3090
3.119,-0.333,3090
3.120,-0.344,3090
3.121,-0.330,3090
3.122,-0.305,3090
3.123,-0.273,3052
3.124,-0.231,3052
3.125,-0.193,3052
3.126,-0.160,3052
3.127,-0.129,3052
3.128,-0.109,3052
3.129,-0.096,3052
3.130,-0.094,3052
3.131,-0.105,3052
3.132,-0.126,3052
3.133,-0.151,3075
3.134,-0.185,3075
3.135,-0.215,3075
3.136,-0.260,3075
3.137,-0.274,3075
3.138,-0.291,3075
3.139,-0.299,3075
3.140,-0.281,3075
3.141,-0.250,3063
3.142,-0.181,3063
3.143,-0.144,3063
3.144,-0.107,3063
3.145,-0.081,3063
3.146,-0.056,3063
3.147,-0.049,3063
3.148,-0.049,3063
3.149,-0.066,3063
3.150,-0.092,3063
3.151,-0.130,3081
3.152,-0.169,3081
3.153,-0.206,3081
3.154,-0.246,3081
3.155,-0.269,3081
3.156,-0.286,3081
3.157,-0.292,3081
3.158,-0.289,3081
3.159,-0.275,3081
3.160,-0.215,3054
3.161,-0.146,3054
3.162,-0.111,3054
3.163,-0.084,3054
3.164,-0.061,3054
3.165,-0.049,3054
3.166,-0.041,3054
3.167,-0.045,3054
3.168,-0.066,3054
3.169,-0.091,3076
3.170,-0.121,3076
3.171,-0.146,3076
3.172,-0.169,3076
3.173,-0.184,3076
3.174,-0.189,3076
3.175,-0.181,3076
3.176,-0.170,3076
3.177,-0.144,3076
3.178,-0.120,3076
3.179,-0.090,3044
3.180,-0.024,3044
3.181,-0.011,3044
3.182,0.015,3044
3.183,0.021,3044
3.184,0.022,3044
3.185,0.011,3044
3.186,-0.015,3044
3.187,-0.049,3044
3.188,-0.091,3064
3.189,-0.136,3064
3.190,-0.189,3064
3.191,-0.229,3064
3.192,-0.265,3064
3.193,-0.294,3064
3.194,-0.306,3064
3.195,-0.304,3064
3.196,-0.294,3064
3.197,-0.281,3064
3.198,-0.256,3069
3.199,-0.228,3069
3.200,-0.164,3069
3.201,-0.144,3069
3.202,-0.126,3069
3.203,-0.121,3069
3.204,-0.124,3069
3.205,-0.141,3069
3.206,-0.169,3069
3.207,-0.201,3067
3.208,-0.242,3067
3.209,-0.276,3067
3.210,-0.311,3067
3.211,-0.344,3067
3.212,-0.356,3067
3.213,-0.362,3067
3.214,-0.354,3067
3.215,-0.336,3067
3.216,-0.310,3067
3.217,-0.281,3068
3.218,-0.249,3068
3.219,-0.215,3068
3.220,-0.163,3068
3.221,-0.146,3068
3.222,-0.136,3068
3.223,-0.144,3068
3.224,-0.161,3068
3.225,-0.181,3068
3.226,-0.210,3084
3.227,-0.246,3084
3.228,-0.276,3084
3.229,-0.299,3084
3.230,-0.324,3084
3.231,-0.335,3084
3.232,-0.346,3084
3.233,-0.345,3084
3.234,-0.336,3084
3.235,-0.310,3084
3.236,-0.278,3090
3.237,-0.244,3090
3.238,-0.204,3090
3.239,-0.174,3090
3.240,-0.131,3090
3.241,-0.129,3090
3.242,-0.130,3090
3.243,-0.144,3090
3.244,-0.166,3090
3.245,-0.201,3095
3.246,-0.234,3095
3.247,-0.281,3095
3.248,-0.320,3095
3.249,-0.349,3095
3.250,-0.371,3095
3.251,-0.374,3095
3.252,-0.374,3095
3.253,-0.361,3095
3.254,-0.333,3095
3.255,-0.294,3090
3.256,-0.260,3090
3.257,-0.224,3090
3.258,-0.186,3090
3.259,-0.164,3090
3.260,-0.126,3090
3.261,-0.125,3090
3.262,-0.134,3090
3.263,-0.154,3090
3.264,-0.185,3079
3.265,-0.221,3079
3.266,-0.264,3079
3.267,-0.299,3079
3.268,-0.328,3079
3.269,-0.351,3079
3.270,-0.354,3079
3.271,-0.351,3079
3.272,-0.333,3079
3.273,-0.304,3079
3.274,-0.266,3091
3.275,-0.228,3091
3.276,-0.191,3091
3.277,-0.164,3091
3.278,-0.139,3091
3.279,-0.126,3091
3.280,-0.145,3091
3.281,-0.171,3091
3.282,-0.211,3091
3.283,-0.256,3084
3.284,-0.306,3084
3.285,-0.354,3084
3.286,-0.401,3084
3.287,-0.435,3084
3.288,-0.466,3084
3.289,-0.487,3084
3.290,-0.487,3084
3.291,-0.466,3084
3.292,-0.432,3084
3.293,-0.389,3048
3.294,-0.338,3048
3.295,-0.284,3048
3.296,-0.216,3048
3.297,-0.150,3048
3.298,-0.089,3048
3.299,-0.020,3048
3.300,0.125,3048
3.301,0.184,3048
3.302,0.256,3066
3.303,0.334,3066
3.304,0.424,3066
3.305,0.516,3066
3.306,0.624,3066
3.307,0.745,3066
3.308,0.873,3066
3.309,1.018,3066
3.310,1.189,3066
3.311,1.385,3066
3.312,1.606,3076
3.313,1.850,3076
3.314,2.089,3076
3.315,2.314,3076
3.316,2.495,3076
3.317,2.559,3076
3.318,2.559,3076
3.319,2.553,3076
3.320,2.232,3076
3.321,2.053,3075
3.322,1.810,3075
3.323,1.564,3075
3.324,1.329,3075
3.325,1.104,3075
3.326,0.896,3075
3.327,0.695,3075
3.328,0.510,3075
3.329,0.344,3075
3.330,0.196,3075
3.331,0.072,3088
3.332,-0.031,3088
3.333,-0.110,3088
3.334,-0.176,3088
3.335,-0.229,3088
3.336,-0.282,3088
3.337,-0.330,3088
3.338,-0.376,3088
3.339,-0.426,3088
3.340,-0.526,3073
3.341,-0.605,3073
3.342,-0.634,3073
3.343,-0.664,3073
3.344,-0.676,3073
3.345,-0.676,3073
3.346,-0.657,3073
3.347,-0.624,3073
3.348,-0.584,3073
3.349,-0.529,3077
3.350,-0.471,3077
3.351,-0.426,3077
3.352,-0.381,3077
3.353,-0.345,3077
3.354,-0.321,3077
3.355,-0.306,3077
3.356,-0.304,3077
3.357,-0.310,3077
3.358,-0.334,3077
3.359,-0.354,3077
3.360,-0.416,3084
3.361,-0.459,3084
3.362,-0.475,3084
3.363,-0.484,3084
3.364,-0.476,3084
3.365,-0.466,3084
3.366,-0.446,3084
3.367,-0.420,3084
3.368,-0.385,3070
3.369,-0.349,3070
3.370,-0.321,3070
3.371,-0.286,3070
3.372,-0.269,3070
3.373,-0.261,3070
3.374,-0.266,3070
3.375,-0.280,3070
3.376,-0.296,3070
3.377,-0.325,3070
3.378,-0.354,3082
3.379,-0.385,3082
3.380,-0.454,3082
3.381,-0.465,3082
3.382,-0.466,3082
3.383,-0.453,3082
3.384,-0.430,3082
3.385,-0.391,3082
3.386,-0.354,3082
3.387,-0.311,3090
3.388,-0.271,3090
3.389,-0.241,3090
3.390,-0.214,3090
3.391,-0.198,3090
3.392,-0.194,3090
3.393,-0.201,3090
3.394,-0.216,3090
3.395,-0.249,3090
3.396,-0.276,3090
3.397,-0.310,3076
3.398,-0.349,3076
3.399,-0.384,3076
3.400,-0.434,3076
3.401,-0.444,3076
3.402,-0.436,3076
3.403,-0.416,3076
3.404,-0.386,3076
3.405,-0.352,3076
3.406,-0.310,3028
3.407,-0.271,3028
3.408,-0.241,3028
3.409,-0.207,3028
3.410,-0.191,3028
3.411,-0.181,3028
3.412,-0.184,3028
3.413,-0.194,3028
3.414,-0.215,3028
3.415,-0.246,3028
3.416,-0.274,3047
3.417,-0.307,3047
3.418,-0.340,3047
3.419,-0.361,3047
3.420,-0.376,3047
3.421,-0.375,3047
3.422,-0.351,3047
3.423,-0.331,3047
3.424,-0.299,3047
3.425,-0.269,3055
3.426,-0.240,3055
3.427,-0.209,3055
3.428,-0.188,3055
3.429,-0.171,3055
3.430,-0.166,3055
3.431,-0.170,3055
3.432,-0.185,3055
3.433,-0.206,3055
3.434,-0.244,3055
3.435,-0.271,3069
3.436,-0.305,3069
3.437,-0.336,3069
3.438,-0.355,3069
3.439,-0.369,3069
3.440,-0.345,3069
3.441,-0.325,3069
3.442,-0.285,3069
3.443,-0.249,3069
3.444,-0.211,3068
3.445,-0.181,3068
3.446,-0.142,3068
3.447,-0.126,3068
3.448,-0.111,3068
3.449,-0.109,3068
3.450,-0.111,3068
3.451,-0.126,3068
3.452,-0.150,3068
3.453,-0.176,3068
3.454,-0.209,3089
3.455,-0.244,3089
3.456,-0.270,3089
3.457,-0.291,3089
3.458,-0.304,3089
3.459,-0.305,3089
3.460,-0.276,3089
3.461,-0.261,3089
3.462,-0.221,3089
3.463,-0.190,3084
3.464,-0.154,3084
3.465,-0.126,3084
3.466,-0.104,3084
3.467,-0.089,3084
3.468,-0.086,3084
3.469,-0.090,3084
3.470,-0.104,3084
3.471,-0.124,3084
3.472,-0.149,3084
3.473,-0.181,3031
3.474,-0.211,3031
3.475,-0.246,3031
3.476,-0.270,3031
3.477,-0.284,3031
3.478,-0.286,3031
3.479,-0.281,3031
3.480,-0.214,3031
3.481,-0.176,3031
3.482,-0.126,3080
3.483,-0.075,3080
3.484,-0.036,3080
3.485,-0.009,3080
3.486,0.019,3080
3.487,0.019,3080
3.488,0.006,3080
3.489,-0.026,3080
3.490,-0.064,3080
3.491,-0.105,3080
3.492,-0.144,3088
3.493,-0.184,3088
3.494,-0.214,3088
3.495,-0.245,3088
3.496,-0.256,3088
3.497,-0.266,3088
3.498,-0.256,3088
3.499,-0.233,3088
3.500,-0.149,3088
3.501,-0.111,3101
3.502,-0.066,3101
3.503,-0.025,3101
3.504,0.021,3101
3.505,0.040,3101
3.506,0.054,3101
3.507,0.052,3101
3.508,0.036,3101
3.509,0.011,3101
3.510,0.011,3101
3.511,-0.066,3042
3.512,-0.106,3042
3.513,-0.139,3042
3.514,-0.171,3042
3.515,-0.186,3042
3.516,-0.186,3042
3.517,-0.175,3042
3.518,-0.150,3042
3.519,-0.121,3042
3.520,-0.034,3085
3.521,0.030,3085
3.522,0.054,3085
3.523,0.071,3085
3.524,0.072,3085
3.525,0.064,3085
3.526,0.050,3085
3.527,0.031,3085
3.528,-0.004,3085
3.529,-0.030,3077
3.530,-0.064,3077
3.531,-0.096,3077
3.532,-0.114,3077
3.533,-0.129,3077
3.534,-0.134,3077
3.535,-0.129,3077
3.536,-0.114,3077
3.537,-0.091,3077
3.538,-0.064,3077
3.539,-0.031,3058
3.540,0.037,3058
3.541,0.071,3058
3.542,0.069,3058
3.543,0.076,3058
3.544,0.075,3058
3.545,0.066,3058
3.546,0.046,3058
3.547,0.021,3058
3.548,-0.025,3086
3.549,-0.066,3086
3.550,-0.106,3086
3.551,-0.134,3086
3.552,-0.163,3086
3.553,-0.175,3086
3.554,-0.175,3086
3.555,-0.168,3086
3.556,-0.144,3086
3.557,-0.111,3086
3.558,-0.074,3091
3.559,-0.034,3091
3.560,0.029,3091
3.561,0.037,3091
3.562,0.044,3091
3.563,0.034,3091
3.564,0.019,3091
3.565,-0.016,3091
3.566,-0.052,3091
3.567,-0.101,3074
3.568,-0.149,3074
3.569,-0.191,3074
3.570,-0.228,3074
3.571,-0.253,3074
3.572,-0.263,3074
3.573,-0.263,3074
3.574,-0.244,3074
3.575,-0.216,3074
3.576,-0.186,3074
3.577,-0.150,3087
3.578,-0.124,3087
3.579,-0.101,3087
3.580,-0.084,3087
3.581,-0.084,3087
3.582,-0.091,3087
3.583,-0.111,3087
3.584,-0.141,3087
3.585,-0.175,3087
3.586,-0.216,3073
3.587,-0.266,3073
3.588,-0.306,3073
3.589,-0.344,3073
3.590,-0.364,3073
3.591,-0.370,3073
3.592,-0.369,3073
3.593,-0.349,3073
3.594,-0.328,3073
3.595,-0.294,3073
3.596,-0.261,3082
3.597,-0.228,3082
3.598,-0.201,3082
3.599,-0.180,3082
3.600,-0.164,3082
3.601,-0.170,3082
3.602,-0.184,3082
3.603,-0.215,3082
3.604,-0.266,3082
3.605,-0.287,3076
3.606,-0.364,3076
3.607,-0.386,3076
3.608,-0.411,3076
3.609,-0.414,3076
3.610,-0.411,3076
3.611,-0.391,3076
3.612,-0.366,3076
3.613,-0.334,3076
3.614,-0.292,3076
3.615,-0.261,3113
3.616,-0.224,3113
3.617,-0.203,3113
3.618,-0.190,3113
3.619,-0.184,3113
3.620,-0.223,3113
3.621,-0.265,3113
3.622,-0.296,3113
3.623,-0.344,3060
3.624,-0.425,3060
3.625,-0.444,3060
3.626,-0.453,3060
3.627,-0.454,3060
3.628,-0.445,3060
3.629,-0.422,3060
3.630,-0.390,3060
3.631,-0.349,3060
3.632,-0.306,3060
3.633,-0.266,3076
3.634,-0.225,3076
3.635,-0.198,3076
3.636,-0.176,3076
3.637,-0.171,3076
3.638,-0.171,3076
3.639,-0.186,3076
3.640,-0.254,3076
3.641,-0.289,3076
3.642,-0.330,3082
3.643,-0.365,3082
3.644,-0.391,3082
3.645,-0.414,3082
3.646,-0.424,3082
3.647,-0.416,3082
3.648,-0.401,3082
3.649,-0.369,3082
3.650,-0.341,3082
3.651,-0.302,3082
3.652,-0.268,3074
3.653,-0.230,3074
3.654,-0.204,3074
3.655,-0.188,3074
3.656,-0.198,3074
3.657,-0.226,3074
3.658,-0.254,3074
3.659,-0.286,3074
3.660,-0.364,3066
3.661,-0.414,3066
3.662,-0.426,3066
3.663,-0.424,3066
3.664,-0.414,3066
3.665,-0.391,3066
3.666,-0.364,3066
3.667,-0.331,3066
3.668,-0.291,3066
3.669,-0.254,3059
3.670,-0.216,3059
3.671,-0.189,3059
3.672,-0.171,3059
3.673,-0.166,3059
3.674,-0.169,3059
3.675,-0.184,3059
3.676,-0.204,3059
3.677,-0.229,3059
3.678,-0.265,3059
3.679,-0.294,3063
3.680,-0.346,3063
3.681,-0.366,3063
3.682,-0.370,3063
3.683,-0.365,3063
3.684,-0.351,3063
3.685,-0.331,3063
3.686,-0.301,3063
3.687,-0.269,3063
3.688,-0.230,3066
3.689,-0.201,3066
3.690,-0.174,3066
3.691,-0.161,3066
3.692,-0.150,3066
3.693,-0.152,3066
3.694,-0.146,3066
3.695,-0.185,3066
3.696,-0.210,3066
3.697,-0.244,3066
3.698,-0.270,3060
3.699,-0.296,3060
3.700,-0.345,3060
3.701,-0.349,3060
3.702,-0.349,3060
3.703,-0.328,3060
3.704,-0.297,3060
3.705,-0.268,3060
3.706,-0.228,3060
3.707,-0.194,3050
3.708,-0.163,3050
3.709,-0.131,3050
3.710,-0.113,3050
3.711,-0.111,3050
3.712,-0.116,3050
3.713,-0.138,3050
3.714,-0.166,3050
3.715,-0.195,3050
3.716,-0.229,3050
3.717,-0.271,3086
3.718,-0.307,3086
3.719,-0.343,3086
3.720,-0.369,3086
3.721,-0.366,3086
3.722,-0.349,3086
3.723,-0.323,3086
3.724,-0.286,3086
3.725,-0.249,3086
3.726,-0.204,3085
3.727,-0.165,3085
3.728,-0.133,3085
3.729,-0.114,3085
3.730,-0.106,3085
3.731,-0.110,3085
3.732,-0.122,3085
3.733,-0.146,3085
3.734,-0.174,3085
3.735,-0.209,3085
3.736,-0.246,3086
3.737,-0.274,3086
3.738,-0.306,3086
3.739,-0.331,3086
3.740,-0.341,3086
3.741,-0.326,3086
3.742,-0.294,3086
3.743,-0.264,3086
3.744,-0.221,3086
3.745,-0.186,3086
3.746,-0.149,3086
3.747,-0.121,3086
3.748,-0.101,3086
3.749,-0.089,3086
3.750,-0.090,3086
3.751,-0.104,3086
3.752,-0.129,3086
3.753,-0.169,3086
3.754,-0.210,3086
3.755,-0.250,3069
3.756,-0.284,3069
3.757,-0.312,3069
3.758,-0.330,3069
3.759,-0.331,3069
3.760,-0.307,3069
3.761,-0.289,3069
3.762,-0.254,3069
3.763,-0.214,3069
3.764,-0.174,3044
3.765,-0.142,3044
3.766,-0.114,3044
3.767,-0.101,3044
3.768,-0.094,3044
3.769,-0.107,3044
3.770,-0.126,3044
3.771,-0.151,3044
3.772,-0.190,3044
3.773,-0.229,3044
3.774,-0.273,3088
3.775,-0.307,3088
3.776,-0.336,3088
3.777,-0.351,3088
3.778,-0.351,3088
3.779,-0.344,3088
3.780,-0.289,3088
3.781,-0.266,3088
3.782,-0.225,3088
3.783,-0.193,3089
3.784,-0.166,3089
3.785,-0.142,3089
3.786,-0.130,3089
3.787,-0.126,3089
3.788,-0.130,3089
3.789,-0.150,3089
3.790,-0.174,3089
3.791,-0.201,3089
3.792,-0.229,3089
3.793,-0.255,3087
3.794,-0.285,3087
3.795,-0.305,3087
3.796,-0.326,3087
3.797,-0.335,3087
3.798,-0.334,3087
3.799,-0.320,3087
3.800,-0.255,3087
3.801,-0.225,3087
3.802,-0.189,3083
3.803,-0.161,3083
3.804,-0.129,3083
3.805,-0.111,3083
3.806,-0.102,3083
3.807,-0.101,3083
3.808,-0.109,3083
3.809,-0.134,3083
3.810,-0.179,3083
3.811,-0.221,3083
3.812,-0.271,3079
3.813,-0.309,3079
3.814,-0.349,3079
3.815,-0.369,3079
3.816,-0.381,3079
3.817,-0.378,3079
3.818,-0.366,3079
3.819,-0.346,3079
3.820,-0.264,3079
3.821,-0.231,3075
3.822,-0.196,3075
3.823,-0.172,3075
3.824,-0.149,3075
3.825,-0.145,3075
3.826,-0.149,3075
3.827,-0.165,3075
3.828,-0.186,3075
3.829,-0.215,3075
3.830,-0.251,3075
3.831,-0.286,3077
3.832,-0.310,3077
3.833,-0.340,3077
3.834,-0.351,3077
3.835,-0.351,3077
3.836,-0.344,3077
3.837,-0.326,3077
3.838,-0.291,3077
3.839,-0.264,3077
3.840,-0.184,3070
3.841,-0.136,3070
3.842,-0.122,3070
3.843,-0.121,3070
3.844,-0.129,3070
3.845,-0.147,3070
3.846,-0.172,3070
3.847,-0.205,3070
3.848,-0.234,3070
3.849,-0.271,3066
3.850,-0.306,3066
3.851,-0.336,3066
3.852,-0.351,3066
3.853,-0.361,3066
3.854,-0.354,3066
3.855,-0.344,3066
3.856,-0.323,3066
3.857,-0.294,3066
3.858,-0.264,3066
3.859,-0.229,3066
3.860,-0.175,3074
3.861,-0.150,3074
3.862,-0.151,3074
3.863,-0.169,3074
3.864,-0.189,3074
3.865,-0.214,3074
3.866,-0.249,3074
3.867,-0.281,3074
3.868,-0.304,3073
3.869,-0.329,3073
3.870,-0.346,3073
3.871,-0.349,3073
3.872,-0.344,3073
3.873,-0.330,3073
3.874,-0.305,3073
3.875,-0.285,3073
3.876,-0.251,3073
3.877,-0.221,3073
3.878,-0.194,3071
3.879,-0.169,3071
3.880,-0.133,3071
3.881,-0.134,3071
3.882,-0.146,3071
3.883,-0.165,3071
3.884,-0.190,3071
3.885,-0.216,3071
3.886,-0.254,3071
3.887,-0.284,3075
3.888,-0.310,3075
3.889,-0.334,3075
3.890,-0.346,3075
3.891,-0.346,3075
3.892,-0.336,3075
3.893,-0.321,3075
3.894,-0.289,3075
3.895,-0.258,3075
3.896,-0.224,3075
3.897,-0.193,3065
3.898,-0.169,3065
3.899,-0.150,3065
3.900,-0.151,3065
3.901,-0.191,3065
3.902,-0.224,3065
3.903,-0.261,3065
3.904,-0.290,3065
3.905,-0.321,3068
3.906,-0.346,3068
3.907,-0.354,3068
3.908,-0.351,3068
3.909,-0.341,3068
3.910,-0.314,3068
3.911,-0.284,3068
3.912,-0.249,3068
3.913,-0.210,3068
3.914,-0.176,3068
3.915,-0.149,3063
3.916,-0.126,3063
3.917,-0.113,3063
3.918,-0.115,3063
3.919,-0.126,3063
3.920,-0.196,3063
3.921,-0.229,3063
3.922,-0.271,3063
3.923,-0.311,3063
3.924,-0.349,3069
3.925,-0.372,3069
3.926,-0.385,3069
3.927,-0.384,3069
3.928,-0.367,3069
3.929,-0.344,3069
3.930,-0.305,3069
3.931,-0.266,3069
3.932,-0.226,3069
3.933,-0.191,3069
3.934,-0.151,3074
3.935,-0.130,3074
3.936,-0.116,3074
3.937,-0.111,3074
3.938,-0.116,3074
3.939,-0.136,3074
3.940,-0.205,3074
3.941,-0.231,3074
3.942,-0.261,3074
3.943,-0.306,3069
3.944,-0.331,3069
3.945,-0.350,3069
3.946,-0.356,3069
3.947,-0.349,3069
3.948,-0.334,3069
3.949,-0.309,3069
3.950,-0.276,3069
3.951,-0.242,3069
3.952,-0.204,3069
3.953,-0.164,3060
3.954,-0.129,3060
3.955,-0.111,3060
3.956,-0.104,3060
3.957,-0.104,3060
3.958,-0.114,3060
3.959,-0.136,3060
3.960,-0.211,3060
3.961,-0.246,3060
3.962,-0.284,3090
3.963,-0.305,3090
3.964,-0.326,3090
3.965,-0.329,3090
3.966,-0.329,3090
3.967,-0.310,3090
3.968,-0.292,3090
3.969,-0.266,3090
3.970,-0.241,3090
3.971,-0.206,3090
3.972,-0.174,3082
3.973,-0.142,3082
3.974,-0.125,3082
3.975,-0.120,3082
3.976,-0.116,3082
3.977,-0.125,3082
3.978,-0.147,3082
3.979,-0.176,3082
3.980,-0.256,3082
3.981,-0.286,3077
3.982,-0.330,3077
3.983,-0.331,3077
3.984,-0.326,3077
3.985,-0.304,3077
3.986,-0.271,3077
3.987,-0.231,3077
3.988,-0.194,3077
3.989,-0.146,3077
3.990,-0.111,3078
3.991,-0.086,3078
3.992,-0.070,3078
3.993,-0.071,3078
3.994,-0.086,3078
3.995,-0.102,3078
3.996,-0.124,3078
3.997,-0.146,3078
3.998,-0.175,3078
3.999,-0.196,3078
4.000,-0.242,3086
4.001,-0.246,3086
4.002,-0.234,3086
4.003,-0.221,3086
4.004,-0.195,3086
4.005,-0.171,3086
4.006,-0.134,3086
4.007,-0.105,3086
4.008,-0.081,3092
4.009,-0.056,3092
4.010,-0.049,3092
4.011,-0.051,3092
4.012,-0.064,3092
4.013,-0.090,3092
4.014,-0.121,3092
4.015,-0.161,3092
4.016,-0.196,3092
4.017,-0.224,3092
4.018,-0.249,3077
4.019,-0.264,3077
4.020,-0.256,3077
4.021,-0.209,3077
4.022,-0.175,3077
4.023,-0.131,3077
4.024,-0.090,3077
4.025,-0.051,3077
4.026,-0.016,3083
4.027,0.019,3083
4.028,0.031,3083
4.029,0.033,3083
4.030,0.026,3083
4.031,0.010,3083
4.032,-0.031,3083
4.033,-0.066,3083
4.034,-0.105,3083
4.035,-0.146,3083
4.036,-0.186,3077
4.037,-0.215,3077
4.038,-0.235,3077
4.039,-0.246,3077
4.040,-0.224,3077
4.041,-0.206,3077
4.042,-0.176,3077
4.043,-0.149,3077
4.044,-0.113,3077
4.045,-0.086,3083
4.046,-0.068,3083
4.047,-0.061,3083
4.048,-0.064,3083
4.049,-0.083,3083
4.050,-0.111,3083
4.051,-0.149,3083
4.052,-0.193,3083
4.053,-0.244,3083
4.054,-0.275,3083
4.055,-0.309,3068
4.056,-0.343,3068
4.057,-0.355,3068
4.058,-0.361,3068
4.059,-0.351,3068
4.060,-0.304,3068
4.061,-0.281,3068
4.062,-0.245,3068
4.063,-0.201,3068
4.064,-0.115,3056
4.065,-0.134,3056
4.066,-0.114,3056
4.067,-0.109,3056
4.068,-0.111,3056
4.069,-0.129,3056
4.070,-0.151,3056
4.071,-0.189,3056
4.072,-0.224,3056
4.073,-0.263,3056
4.074,-0.296,3080
4.075,-0.331,3080
4.076,-0.351,3080
4.077,-0.370,3080
4.078,-0.372,3080
4.079,-0.366,3080
4.080,-0.326,3080
4.081,-0.281,3080
4.082,-0.249,3080
4.083,-0.216,3075
4.084,-0.189,3075
4.085,-0.171,3075
4.086,-0.152,3075
4.087,-0.161,3075
4.088,-0.169,3075
4.089,-0.189,3075
4.090,-0.215,3075
4.091,-0.246,3075
4.092,-0.275,3075
4.093,-0.306,3075
4.094,-0.331,3065
4.095,-0.347,3065
4.096,-0.356,3065
4.097,-0.350,3065
4.098,-0.335,3065
4.099,-0.309,3065
4.100,-0.234,3065
4.101,-0.194,3065
4.102,-0.171,3071
4.103,-0.121,3071
4.104,-0.115,3071
4.105,-0.114,3071
4.106,-0.129,3071
4.107,-0.151,3071
4.108,-0.184,3071
4.109,-0.221,3071
4.110,-0.266,3071
4.111,-0.306,3071
4.112,-0.344,3070
4.113,-0.369,3070
4.114,-0.383,3070
4.115,-0.384,3070
4.116,-0.370,3070
4.117,-0.344,3070
4.118,-0.305,3070
4.119,-0.264,3070
4.120,-0.165,3070
4.121,-0.109,3070
4.122,-0.101,3070
4.123,-0.106,3070
4.124,-0.125,3070
4.125,-0.152,3070
4.126,-0.194,3070
4.127,-0.244,3070
4.128,-0.284,3070
4.129,-0.326,3070
4.130,-0.354,3072
4.131,-0.381,3072
4.132,-0.393,3072
4.133,-0.400,3072
4.134,-0.386,3072
4.135,-0.369,3072
4.136,-0.346,3072
4.137,-0.324,3072
4.138,-0.294,3072
4.139,-0.266,3072
4.140,-0.231,3070
4.141,-0.241,3070
4.142,-0.249,3070
4.143,-0.255,3070
4.144,-0.271,3070
4.145,-0.286,3070
4.146,-0.292,3070
4.147,-0.289,3070
4.148,-0.281,3062
4.149,-0.226,3062
4.150,-0.181,3062
4.151,-0.104,3062
4.152,-0.005,3062
4.153,0.124,3062
4.154,0.259,3062
4.155,0.411,3062
4.156,0.573,3062
4.157,0.736,3062
4.158,0.899,3062
4.159,1.055,3062
4.160,1.391,3062
4.161,1.539,3062
4.162,1.694,3062
4.163,1.831,3062
4.164,1.970,3062
4.165,2.091,3062
4.166,2.171,3062
4.167,2.211,3063
4.168,2.209,3063
4.169,2.167,3063
4.170,2.090,3063
4.171,1.986,3063
4.172,1.876,3063
4.173,1.756,3063
4.174,1.631,3063
4.175,1.484,3063
4.176,1.327,3063
4.177,1.149,3065
4.178,0.971,3065
4.179,0.789,3065
4.180,0.389,3065
4.181,0.229,3065
4.182,0.056,3065
4.183,-0.121,3065
4.184,-0.234,3065
4.185,-0.345,3065
4.186,-0.444,3067
4.187,-0.521,3067
4.188,-0.570,3067
4.189,-0.603,3067
4.190,-0.609,3067
4.191,-0.604,3067
4.192,-0.585,3067
4.193,-0.554,3067
4.194,-0.524,3067
4.195,-0.491,3067
4.196,-0.465,3069
4.197,-0.445,3069
4.198,-0.436,3069
4.199,-0.431,3069
4.200,-0.449,3069
4.201,-0.482,3069
4.202,-0.501,3069
4.203,-0.514,3069
4.204,-0.531,3089
4.205,-0.539,3089
4.206,-0.541,3089
4.207,-0.527,3089
4.208,-0.505,3089
4.209,-0.472,3089
4.210,-0.436,3089
4.211,-0.393,3089
4.212,-0.351,3089
4.213,-0.321,3089
4.214,-0.289,3083
4.215,-0.274,3083
4.216,-0.266,3083
4.217,-0.269,3083
4.218,-0.287,3083
4.219,-0.286,3083
4.220,-0.384,3083
4.221,-0.411,3083
4.222,-0.446,3083
4.223,-0.464,3097
4.224,-0.474,3097
4.225,-0.474,3097
4.226,-0.466,3097
4.227,-0.454,3097
4.228,-0.429,3097
4.229,-0.404,3097
4.230,-0.369,3097
4.231,-0.340,3097
4.232,-0.304,3097
4.233,-0.276,3086
4.234,-0.256,3086
4.235,-0.249,3086
4.236,-0.256,3086
4.237,-0.273,3086
4.238,-0.292,3086
4.239,-0.324,3086
4.240,-0.390,3086
4.241,-0.412,3086
4.242,-0.441,3089
4.243,-0.450,3089
4.244,-0.456,3089
4.245,-0.453,3089
4.246,-0.443,3089
4.247,-0.424,3089
4.248,-0.401,3089
4.249,-0.364,3089
4.250,-0.328,3089
4.251,-0.290,3089
4.252,-0.263,3102
4.253,-0.241,3102
4.254,-0.224,3102
4.255,-0.226,3102
4.256,-0.240,3102
4.257,-0.258,3102
4.258,-0.281,3102
4.259,-0.311,3102
4.260,-0.376,3102
4.261,-0.401,3074
4.262,-0.415,3074
4.263,-0.421,3074
4.264,-0.409,3074
4.265,-0.383,3074
4.266,-0.351,3074
4.267,-0.309,3074
4.268,-0.270,3074
4.269,-0.230,3074
4.270,-0.199,3074
4.271,-0.175,3075
4.272,-0.164,3075
4.273,-0.152,3075
4.274,-0.168,3075
4.275,-0.186,3075
4.276,-0.216,3075
4.277,-0.256,3075
4.278,-0.296,3075
4.279,-0.336,3075
4.280,-0.389,3049
4.281,-0.391,3049
4.282,-0.381,3049
4.283,-0.354,3049
4.284,-0.323,3049
4.285,-0.286,3049
4.286,-0.251,3049
4.287,-0.214,3049
4.288,-0.184,3049
4.289,-0.161,3065
4.290,-0.144,3065
4.291,-0.142,3065
4.292,-0.144,3065
4.293,-0.161,3065
4.294,-0.181,3065
4.295,-0.206,3065
4.296,-0.231,3065
4.297,-0.266,3065
4.298,-0.292,3065
4.299,-0.321,3085
4.300,-0.335,3085
4.301,-0.330,3085
4.302,-0.314,3085
4.303,-0.291,3085
4.304,-0.264,3085
4.305,-0.226,3085
4.306,-0.189,3085
4.307,-0.151,3085
4.308,-0.125,3074
4.309,-0.107,3074
4.310,-0.101,3074
4.311,-0.106,3074
4.312,-0.121,3074
4.313,-0.144,3074
4.314,-0.170,3074
4.315,-0.201,3074
4.316,-0.230,3074
4.317,-0.261,3074
4.318,-0.280,3047
4.319,-0.289,3047
4.320,-0.281,3047
4.321,-0.265,3047
4.322,-0.235,3047
4.323,-0.206,3047
4.324,-0.171,3047
4.325,-0.130,3047
4.326,-0.101,3047
4.327,-0.069,3075
4.328,-0.055,3075
4.329,-0.049,3075
4.330,-0.051,3075
4.331,-0.062,3075
4.332,-0.089,3075
4.333,-0.116,3075
4.334,-0.151,3075
4.335,-0.186,3075
4.336,-0.209,3075
4.337,-0.228,3079
4.338,-0.241,3079
4.339,-0.242,3079
4.340,-0.204,3079
4.341,-0.186,3079
4.342,-0.186,3079
4.343,-0.125,3079
4.344,-0.089,3079
4.345,-0.051,3079
4.346,-0.029,3079
4.347,-0.009,3077
4.348,-0.004,3077
4.349,-0.007,3077
4.350,-0.026,3077
4.351,-0.051,3077
4.352,-0.086,3077
4.353,-0.116,3077
4.354,-0.147,3077
4.355,-0.172,3077
4.356,-0.190,3077
4.357,-0.195,3076
4.358,-0.191,3076
4.359,-0.176,3076
4.360,-0.115,3076
4.361,-0.090,3076
4.362,-0.054,3076
4.363,-0.025,3076
4.364,0.019,3076
4.365,0.036,3076
4.366,0.052,3070
4.367,0.056,3070
4.368,0.059,3070
4.369,0.049,3070
4.370,0.034,3070
4.371,0.007,3070
4.372,-0.029,3070
4.373,-0.054,3070
4.374,-0.081,3070
4.375,-0.105,3070
4.376,-0.121,3025
4.377,-0.129,3025
4.378,-0.121,3025
4.379,-0.109,3025
4.380,-0.054,3025
4.381,-0.036,3025
4.382,-0.013,3025
4.383,0.024,3025
4.384,0.037,3025
4.385,0.051,3076
4.386,0.060,3076
4.387,0.054,3076
4.388,0.039,3076
4.389,0.019,3076
4.390,-0.020,3076
4.391,-0.054,3076
4.392,-0.089,3076
4.393,-0.114,3076
4.394,-0.135,3076
4.395,-0.149,3063
4.396,-0.160,3063
4.397,-0.147,3063
4.398,-0.134,3063
4.399,-0.106,3063
4.400,-0.034,3063
4.401,-0.004,3063
4.402,0.033,3063
4.403,0.054,3063
4.404,0.070,3059
4.405,0.074,3059
4.406,0.052,3059
4.407,0.052,3059
4.408,0.031,3059
4.409,-0.005,3059
4.410,-0.034,3059
4.411,-0.064,3059
4.412,-0.101,3059
4.413,-0.121,3059
4.414,-0.133,3076
4.415,-0.139,3076
4.416,-0.136,3076
4.417,-0.125,3076
4.418,-0.107,3076
4.419,-0.091,3076
4.420,-0.048,3076
4.421,-0.034,3076
4.422,-0.025,3076
4.423,-0.024,3086
4.424,-0.026,3086
4.425,-0.035,3086
4.426,-0.058,3086
4.427,-0.091,3086
4.428,-0.130,3086
4.429,-0.171,3086
4.430,-0.206,3086
4.431,-0.250,3086
4.432,-0.284,3086
4.433,-0.306,3063
4.434,-0.311,3063
4.435,-0.309,3063
4.436,-0.291,3063
4.437,-0.265,3063
4.438,-0.230,3063
4.439,-0.195,3063
4.440,-0.131,3063
4.441,-0.121,3063
4.442,-0.109,3067
4.443,-0.109,3067
4.444,-0.125,3067
4.445,-0.146,3067
4.446,-0.185,3067
4.447,-0.215,3067
4.448,-0.256,3067
4.449,-0.294,3067
4.450,-0.333,3067
4.451,-0.361,3067
4.452,-0.381,3077
4.453,-0.389,3077
4.454,-0.386,3077
4.455,-0.372,3077
4.456,-0.351,3077
4.457,-0.329,3077
4.458,-0.299,3077
4.459,-0.271,3077
4.460,-0.223,3077
4.461,-0.211,3087
4.462,-0.209,3087
4.463,-0.211,3087
4.464,-0.231,3087
4.465,-0.261,3087
4.466,-0.291,3087
4.467,-0.325,3087
4.468,-0.351,3087
4.469,-0.376,3087
4.470,-0.391,3087
4.471,-0.401,3051
4.472,-0.404,3051
4.473,-0.391,3051
4.474,-0.375,3051
4.475,-0.354,3051
4.476,-0.331,3051
4.477,-0.301,3051
4.478,-0.271,3051
4.479,-0.249,3051
4.480,-0.211,3086
4.481,-0.223,3086
4.482,-0.231,3086
4.483,-0.261,3086
4.484,-0.290,3086
4.485,-0.314,3086
4.486,-0.364,3086
4.487,-0.401,3086
4.488,-0.426,3086
4.489,-0.444,3069
4.490,-0.450,3069
4.491,-0.451,3069
4.492,-0.434,3069
4.493,-0.407,3069
4.494,-0.369,3069
4.495,-0.331,3069
4.496,-0.284,3069
4.497,-0.250,3069
4.498,-0.223,3069
4.499,-0.211,3055
4.500,-0.214,3055
4.501,-0.234,3055
4.502,-0.261,3055
4.503,-0.291,3055
4.504,-0.326,3055
4.505,-0.354,3055
4.506,-0.381,3055
4.507,-0.406,3055
4.508,-0.415,3083
4.509,-0.416,3083
4.510,-0.414,3083
4.511,-0.406,3083
4.512,-0.384,3083
4.513,-0.355,3083
4.514,-0.323,3083
4.515,-0.286,3083
4.516,-0.255,3083
4.517,-0.226,3083
4.518,-0.210,3093
4.519,-0.196,3093
4.520,-0.209,3093
4.521,-0.226,3093
4.522,-0.251,3093
4.523,-0.280,3093
4.524,-0.311,3093
4.525,-0.347,3093
4.526,-0.374,3093
4.527,-0.391,3084
4.528,-0.400,3084
4.529,-0.385,3084
4.530,-0.367,3084
4.531,-0.321,3084
4.532,-0.306,3084
4.533,-0.269,3084
4.534,-0.229,3084
4.535,-0.195,3084
4.536,-0.166,3084
4.537,-0.149,3098
4.538,-0.145,3098
4.539,-0.150,3098
4.540,-0.205,3098
4.541,-0.231,3098
4.542,-0.275,3098
4.543,-0.311,3098
4.544,-0.354,3098
4.545,-0.376,3098
4.546,-0.401,3083
4.547,-0.406,3083
4.548,-0.390,3083
4.549,-0.371,3083
4.550,-0.344,3083
4.551,-0.306,3083
4.552,-0.270,3083
4.553,-0.228,3083
4.554,-0.191,3083
4.555,-0.163,3083
4.556,-0.136,3083
4.557,-0.130,3083
4.558,-0.134,3083
4.559,-0.149,3083
4.560,-0.211,3083
4.561,-0.235,3083
4.562,-0.273,3083
4.563,-0.304,3083
4.564,-0.321,3083
4.565,-0.334,3045
4.566,-0.341,3045
4.567,-0.334,3045
4.568,-0.324,3045
4.569,-0.304,3045
4.570,-0.281,3045
4.571,-0.249,3045
4.572,-0.214,3045
4.573,-0.181,3045
4.574,-0.154,3045
4.575,-0.135,3073
4.576,-0.131,3073
4.577,-0.136,3073
4.578,-0.161,3073
4.579,-0.189,3073
4.580,-0.273,3073
4.581,-0.324,3073
4.582,-0.344,3073
4.583,-0.367,3073
4.584,-0.376,3070
4.585,-0.386,3070
4.586,-0.376,3070
4.587,-0.364,3070
4.588,-0.341,3070
4.589,-0.307,3070
4.590,-0.275,3070
4.591,-0.241,3070
4.592,-0.204,3070
4.593,-0.174,3070
4.594,-0.151,3072
4.595,-0.149,3072
4.596,-0.151,3072
4.597,-0.164,3072
4.598,-0.185,3072
4.599,-0.209,3072
4.600,-0.285,3072
4.601,-0.310,3072
4.602,-0.341,3072
4.603,-0.352,3072
4.604,-0.362,3078
4.605,-0.354,3078
4.606,-0.341,3078
4.607,-0.314,3078
4.608,-0.285,3078
4.609,-0.253,3078
4.610,-0.215,3078
4.611,-0.184,3078
4.612,-0.154,3078
4.613,-0.146,3078
4.614,-0.146,3041
4.615,-0.170,3041
4.616,-0.199,3041
4.617,-0.241,3041
4.618,-0.281,3041
4.619,-0.331,3041
4.620,-0.391,3041
4.621,-0.409,3041
4.622,-0.409,3040
4.623,-0.389,3040
4.624,-0.341,3040
4.625,-0.310,3040
4.626,-0.273,3040
4.627,-0.241,3040
4.628,-0.206,3040
4.629,-0.182,3040
4.630,-0.169,3040
4.631,-0.166,3084
4.632,-0.170,3084
4.633,-0.188,3084
4.634,-0.211,3084
4.635,-0.245,3084
4.636,-0.280,3084
4.637,-0.311,3084
4.638,-0.346,3084
4.639,-0.369,3084
4.640,-0.389,3052
4.641,-0.356,3052
4.642,-0.330,3052
4.643,-0.289,3052
4.644,-0.246,3052
4.645,-0.196,3052
4.646,-0.165,3052
4.647,-0.134,3052
4.648,-0.122,3052
4.649,-0.121,3076
4.650,-0.134,3076
4.651,-0.163,3076
4.652,-0.193,3076
4.653,-0.231,3076
4.654,-0.269,3076
4.655,-0.306,3076
4.656,-0.341,3076
4.657,-0.366,3076
4.658,-0.384,3076
4.659,-0.384,3066
4.660,-0.351,3066
4.661,-0.330,3066
4.662,-0.295,3066
4.663,-0.261,3066
4.664,-0.226,3066
4.665,-0.195,3066
4.666,-0.170,3066
4.667,-0.149,3066
4.668,-0.146,3071
4.669,-0.151,3071
4.670,-0.174,3071
4.671,-0.201,3071
4.672,-0.228,3071
4.673,-0.261,3071
4.674,-0.291,3071
4.675,-0.321,3071
4.676,-0.341,3071
4.677,-0.350,3071
4.678,-0.351,3064
4.679,-0.346,3064
4.680,-0.296,3064
4.681,-0.229,3064
4.682,-0.204,3064
4.683,-0.224,3064
4.684,-0.145,3064
4.685,-0.129,3064
4.686,-0.129,3062
4.687,-0.150,3062
4.688,-0.176,3062
4.689,-0.211,3062
4.690,-0.256,3062
4.691,-0.294,3062
4.692,-0.329,3062
4.693,-0.354,3062
4.694,-0.366,3062
4.695,-0.370,3065
4.696,-0.356,3065
4.697,-0.330,3065
4.698,-0.294,3065
4.699,-0.260,3065
4.700,-0.181,3065
4.701,-0.149,3065
4.702,-0.131,3065
4.703,-0.121,3065
4.704,-0.116,3069
4.705,-0.126,3069
4.706,-0.144,3069
4.707,-0.181,3069
4.708,-0.211,3069
4.709,-0.249,3069
4.710,-0.306,3069
4.711,-0.349,3069
4.712,-0.356,3069
4.713,-0.330,3074
4.714,-0.352,3074
4.715,-0.340,3074
4.716,-0.311,3074
4.717,-0.286,3074
4.718,-0.251,3074
4.719,-0.211,3074
4.720,-0.151,3074
4.721,-0.142,3074
4.722,-0.144,3087
4.723,-0.151,3087
4.724,-0.176,3087
4.725,-0.199,3087
4.726,-0.228,3087
4.727,-0.264,3087
4.728,-0.295,3087
4.729,-0.329,3087
4.730,-0.350,3087
4.731,-0.365,3087
4.732,-0.369,3092
4.733,-0.365,3092
4.734,-0.350,3092
4.735,-0.329,3092
4.736,-0.296,3092
4.737,-0.264,3092
4.738,-0.224,3092
4.739,-0.191,3092
4.740,-0.136,3092
4.741,-0.133,3101
4.742,-0.134,3101
4.743,-0.149,3101
4.744,-0.176,3101
4.745,-0.209,3101
4.746,-0.244,3101
4.747,-0.273,3101
4.748,-0.304,3101
4.749,-0.326,3101
4.750,-0.341,3101
4.751,-0.341,3026
4.752,-0.331,3026
4.753,-0.311,3026
4.754,-0.285,3026
4.755,-0.249,3026
4.756,-0.209,3026
4.757,-0.174,3026
4.758,-0.136,3026
4.759,-0.111,3026
4.760,-0.092,3089
4.761,-0.121,3089
4.762,-0.161,3089
4.763,-0.185,3089
4.764,-0.226,3089
4.765,-0.261,3089
4.766,-0.294,3089
4.767,-0.321,3089
4.768,-0.343,3089
4.769,-0.361,3051
4.770,-0.349,3051
4.771,-0.350,3051
4.772,-0.306,3051
4.773,-0.281,3051
4.774,-0.246,3051
4.775,-0.216,3051
4.776,-0.181,3051
4.777,-0.150,3051
4.778,-0.136,3051
4.779,-0.131,3079
4.780,-0.164,3079
4.781,-0.212,3079
4.782,-0.249,3079
4.783,-0.282,3079
4.784,-0.306,3079
4.785,-0.329,3079
4.786,-0.341,3079
4.787,-0.341,3071
4.788,-0.333,3071
4.789,-0.311,3071
4.790,-0.285,3071
4.791,-0.250,3071
4.792,-0.212,3071
4.793,-0.180,3071
4.794,-0.147,3071
4.795,-0.129,3071
4.796,-0.121,3071
4.797,-0.116,3077
4.798,-0.129,3077
4.799,-0.146,3077
4.800,-0.204,3077
4.801,-0.229,3077
4.802,-0.266,3077
4.803,-0.294,3077
4.804,-0.324,3077
4.805,-0.346,3077
4.806,-0.340,3074
4.807,-0.328,3074
4.808,-0.306,3074
4.809,-0.284,3074
4.810,-0.251,3074
4.811,-0.214,3074
4.812,-0.176,3074
4.813,-0.146,3074
4.814,-0.124,3074
4.815,-0.106,3074
4.816,-0.101,3094
4.817,-0.107,3094
4.818,-0.124,3094
4.819,-0.144,3094
4.820,-0.214,3094
4.821,-0.246,3094
4.822,-0.281,3094
4.823,-0.304,3094
4.824,-0.323,3094
4.825,-0.326,3084
4.826,-0.314,3084
4.827,-0.289,3084
4.828,-0.261,3084
4.829,-0.221,3084
4.830,-0.185,3084
4.831,-0.146,3084
4.832,-0.121,3084
4.833,-0.101,3084
4.834,-0.089,3084
4.835,-0.090,3084
4.836,-0.102,3066
4.837,-0.121,3066
4.838,-0.144,3066
4.839,-0.176,3066
4.840,-0.245,3066
4.841,-0.271,3066
4.842,-0.289,3066
4.843,-0.304,3066
4.844,-0.306,3066
4.845,-0.305,3072
4.846,-0.286,3072
4.847,-0.261,3072
4.848,-0.225,3072
4.849,-0.186,3072
4.850,-0.144,3072
4.851,-0.110,3072
4.852,-0.086,3072
4.853,-0.065,3072
4.854,-0.065,3072
4.855,-0.069,3080
4.856,-0.089,3080
4.857,-0.114,3080
4.858,-0.147,3080
4.859,-0.186,3080
4.860,-0.254,3080
4.861,-0.273,3080
4.862,-0.286,3080
4.863,-0.290,3080
4.864,-0.286,3073
4.865,-0.274,3073
4.866,-0.249,3073
4.867,-0.217,3073
4.868,-0.176,3073
4.869,-0.131,3073
4.870,-0.091,3073
4.871,-0.054,3073
4.872,-0.026,3073
4.873,-0.013,3073
4.874,-0.006,3073
4.875,-0.015,3073
4.876,-0.034,3073
4.877,-0.059,3073
4.878,-0.101,3073
4.879,-0.142,3073
4.880,-0.219,3073
4.881,-0.241,3073
4.882,-0.251,3073
4.883,-0.251,3066
4.884,-0.233,3066
4.885,-0.214,3066
4.886,-0.189,3066
4.887,-0.161,3066
4.888,-0.126,3066
4.889,-0.096,3066
4.890,-0.069,3066
4.891,-0.054,3066
4.892,-0.045,3066
4.893,-0.044,3059
4.894,-0.050,3059
4.895,-0.066,3059
4.896,-0.089,3059
4.897,-0.111,3059
4.898,-0.133,3059
4.899,-0.151,3059
4.900,-0.171,3059
4.901,-0.168,3059
4.902,-0.161,3060
4.903,-0.133,3060
4.904,-0.111,3060
4.905,-0.084,3060
4.906,-0.049,3060
4.907,-0.016,3060
4.908,0.026,3060
4.909,0.049,3060
4.910,0.060,3060
4.911,0.056,3060
4.912,0.050,3058
4.913,0.029,3058
4.914,-0.009,3058
4.915,-0.048,3058
4.916,-0.087,3058
4.917,-0.129,3058
4.918,-0.168,3058
4.919,-0.204,3058
4.920,-0.241,3058
4.921,-0.244,3071
4.922,-0.230,3071
4.923,-0.210,3071
4.924,-0.184,3071
4.925,-0.146,3071
4.926,-0.114,3071
4.927,-0.086,3071
4.928,-0.066,3071
4.929,-0.054,3071
4.930,-0.065,3071
4.931,-0.084,3018
4.932,-0.114,3018
4.933,-0.144,3018
4.934,-0.186,3018
4.935,-0.224,3018
4.936,-0.261,3018
4.937,-0.287,3018
4.938,-0.314,3018
4.939,-0.329,3018
4.940,-0.326,3070
4.941,-0.289,3070
4.942,-0.261,3070
4.943,-0.221,3070
4.944,-0.186,3070
4.945,-0.149,3070
4.946,-0.121,3070
4.947,-0.101,3070
4.948,-0.094,3070
4.949,-0.101,3081
4.950,-0.114,3081
4.951,-0.144,3081
4.952,-0.176,3081
4.953,-0.210,3081
4.954,-0.246,3081
4.955,-0.282,3081
4.956,-0.306,3081
4.957,-0.331,3081
4.958,-0.341,3081
4.959,-0.344,3073
4.960,-0.304,3073
4.961,-0.286,3073
4.962,-0.246,3073
4.963,-0.206,3073
4.964,-0.175,3073
4.965,-0.146,3073
4.966,-0.128,3073
4.967,-0.115,3073
4.968,-0.117,3082
4.969,-0.130,3082
4.970,-0.150,3082
4.971,-0.184,3082
4.972,-0.215,3082
4.973,-0.251,3082
4.974,-0.281,3082
4.975,-0.305,3082
4.976,-0.324,3082
4.977,-0.325,3082
4.978,-0.321,3073
4.979,-0.299,3073
4.980,-0.241,3073
4.981,-0.210,3073
4.982,-0.171,3073
4.983,-0.144,3073
4.984,-0.121,3073
4.985,-0.106,3073
4.986,-0.104,3073
4.987,-0.111,3084
4.988,-0.131,3084
4.989,-0.164,3084
4.990,-0.191,3084
4.991,-0.219,3084
4.992,-0.251,3084
4.993,-0.271,3084
4.994,-0.291,3084
4.995,-0.299,3084
4.996,-0.301,3084
4.997,-0.296,3090
4.998,-0.284,3090
4.999,-0.266,3090
5.000,-0.209,3090
5.001,-0.184,3090
5.002,-0.152,3090
5.003,-0.134,3090
5.004,-0.126,3090
5.005,-0.126,3090
5.006,-0.134,3098
5.007,-0.161,3098
5.008,-0.191,3098
5.009,-0.228,3098
5.010,-0.274,3098
5.011,-0.311,3098
5.012,-0.354,3098
5.013,-0.389,3098
5.014,-0.415,3098
5.015,-0.432,3098
5.016,-0.441,3066
5.017,-0.430,3066
5.018,-0.416,3066
5.019,-0.386,3066
5.020,-0.301,3066
5.021,-0.210,3066
5.022,-0.170,3066
5.023,-0.121,3066
5.024,-0.081,3094
5.025,-0.036,3094
5.026,-0.001,3094
5.027,0.049,3094
5.028,0.096,3094
5.029,0.154,3094
5.030,0.229,3094
5.031,0.311,3094
5.032,0.416,3094
5.033,0.529,3094
5.034,0.661,3100
5.035,0.791,3100
5.036,0.944,3100
5.037,1.114,3100
5.038,1.315,3100
5.039,1.532,3100
5.040,2.059,3100
5.041,2.248,3100
5.042,2.424,3100
5.043,2.522,3071
5.044,2.545,3071
5.045,2.501,3071
5.046,2.390,3071
5.047,2.231,3071
5.048,2.035,3071
5.049,1.831,3071
5.050,1.629,3071
5.051,1.431,3071
5.052,1.236,3071
5.053,1.056,3081
5.054,0.871,3081
5.055,0.749,3081
5.056,0.549,3081
5.057,0.406,3081
5.058,0.284,3081
5.059,0.172,3081
5.060,-0.036,3081
5.061,-0.135,3081
5.062,-0.215,3080
5.063,-0.381,3080
5.064,-0.451,3080
5.065,-0.524,3080
5.066,-0.581,3080
5.067,-0.626,3080
5.068,-0.669,3080
5.069,-0.693,3080
5.070,-0.704,3080
5.071,-0.704,3096
5.072,-0.689,3096
5.073,-0.664,3096
5.074,-0.616,3096
5.075,-0.566,3096
5.076,-0.512,3096
5.077,-0.461,3096
5.078,-0.411,3096
5.079,-0.371,3096
5.080,-0.336,3074
5.081,-0.364,3074
5.082,-0.388,3074
5.083,-0.421,3074
5.084,-0.450,3074
5.085,-0.481,3074
5.086,-0.501,3074
5.087,-0.511,3074
5.088,-0.511,3074
5.089,-0.504,3074
5.090,-0.487,3069
5.091,-0.468,3069
5.092,-0.441,3069
5.093,-0.409,3069
5.094,-0.374,3069
5.095,-0.345,3069
5.096,-0.321,3069
5.097,-0.297,3069
5.098,-0.291,3069
5.099,-0.295,3069
5.100,-0.331,3067
5.101,-0.391,3067
5.102,-0.426,3067
5.103,-0.451,3067
5.104,-0.469,3067
5.105,-0.485,3067
5.106,-0.485,3067
5.107,-0.471,3067
5.108,-0.451,3073
5.109,-0.424,3073
5.110,-0.386,3073
5.111,-0.347,3073
5.112,-0.310,3073
5.113,-0.273,3073
5.114,-0.246,3073
5.115,-0.216,3073
5.116,-0.216,3073
5.117,-0.229,3073
5.118,-0.245,3071
5.119,-0.266,3071
5.120,-0.334,3071
5.121,-0.362,3071
5.122,-0.401,3071
5.123,-0.422,3071
5.124,-0.435,3071
5.125,-0.444,3071
5.126,-0.443,3071
5.127,-0.431,3060
5.128,-0.414,3060
5.129,-0.386,3060
5.130,-0.356,3060
5.131,-0.329,3060
5.132,-0.301,3060
5.133,-0.274,3060
5.134,-0.260,3060
5.135,-0.246,3060
5.136,-0.246,3060
5.137,-0.251,3063
5.138,-0.271,3063
5.139,-0.301,3063
5.140,-0.374,3063
5.141,-0.405,3063
5.142,-0.429,3063
5.143,-0.445,3063
5.144,-0.446,3063
5.145,-0.438,3063
5.146,-0.474,3067
5.147,-0.391,3067
5.148,-0.361,3067
5.149,-0.328,3067
5.150,-0.289,3067
5.151,-0.254,3067
5.152,-0.223,3067
5.153,-0.206,3067
5.154,-0.194,3067
5.155,-0.194,3067
5.156,-0.207,3068
5.157,-0.233,3068
5.158,-0.265,3068
5.159,-0.294,3068
5.160,-0.351,3068
5.161,-0.366,3068
5.162,-0.370,3068
5.163,-0.374,3068
5.164,-0.369,3068
5.165,-0.352,3069
5.166,-0.331,3069
5.167,-0.296,3069
5.168,-0.256,3069
5.169,-0.216,3069
5.170,-0.184,3069
5.171,-0.163,3069
5.172,-0.149,3069
5.173,-0.150,3069
5.174,-0.164,3069
5.175,-0.186,3071
5.176,-0.216,3071
5.177,-0.247,3071
5.178,-0.281,3071
5.179,-0.307,3071
5.180,-0.366,3071
5.181,-0.376,3071
5.182,-0.379,3071
5.183,-0.369,3071
5.184,-0.349,3063
5.185,-0.314,3063
5.186,-0.276,3063
5.187,-0.241,3063
5.188,-0.193,3063
5.189,-0.154,3063
5.190,-0.126,3063
5.191,-0.106,3063
5.192,-0.105,3063
5.193,-0.106,3063
5.194,-0.124,3068
5.195,-0.149,3068
5.196,-0.181,3068
5.197,-0.210,3068
5.198,-0.245,3068
5.199,-0.266,3068
5.200,-0.294,3068
5.201,-0.291,3068
5.202,-0.281,3068
5.203,-0.263,3086
5.204,-0.230,3086
5.205,-0.196,3086
5.206,-0.164,3086
5.207,-0.131,3086
5.208,-0.104,3086
5.209,-0.084,3086
5.210,-0.056,3086
5.211,-0.061,3086
5.212,-0.064,3086
5.213,-0.083,3092
5.214,-0.104,3092
5.215,-0.130,3092
5.216,-0.169,3092
5.217,-0.193,3092
5.218,-0.215,3092
5.219,-0.230,3092
5.220,-0.249,3092
5.221,-0.244,3092
5.222,-0.229,3086
5.223,-0.204,3086
5.224,-0.181,3086
5.225,-0.136,3086
5.226,-0.096,3086
5.227,-0.069,3086
5.228,-0.044,3086
5.229,-0.022,3086
5.230,-0.009,3086
5.231,-0.004,3086
5.232,-0.006,3086
5.233,-0.021,3086
5.234,-0.036,3086
5.235,-0.064,3086
5.236,-0.091,3086
5.237,-0.114,3086
5.238,-0.136,3086
5.239,-0.161,3086
5.240,-0.171,3086
5.241,-0.164,3084
5.242,-0.135,3084
5.243,-0.109,3084
5.244,-0.071,3084
5.245,-0.037,3084
5.246,-0.013,3084
5.247,0.014,3084
5.248,0.030,3084
5.249,0.034,3084
5.250,0.031,3084
5.251,0.021,3053
5.252,-0.011,3053
5.253,-0.036,3053
5.254,-0.069,3053
5.255,-0.096,3053
5.256,-0.125,3053
5.257,-0.145,3053
5.258,-0.161,3053
5.259,-0.164,3053
5.260,-0.138,3075
5.261,-0.089,3075
5.262,-0.050,3075
5.263,-0.015,3075
5.264,0.019,3075
5.265,0.045,3075
5.266,0.056,3075
5.267,0.064,3075
5.268,0.056,3075
5.269,0.045,3076
5.270,0.024,3076
5.271,-0.014,3076
5.272,-0.046,3076
5.273,-0.084,3076
5.274,-0.111,3076
5.275,-0.144,3076
5.276,-0.164,3076
5.277,-0.171,3076
5.278,-0.166,3076
5.279,-0.151,3089
5.280,-0.095,3089
5.281,-0.071,3089
5.282,-0.044,3089
5.283,-0.014,3089
5.284,0.011,3089
5.285,0.024,3089
5.286,0.026,3089
5.287,0.011,3089
5.288,-0.014,3103
5.289,-0.044,3103
5.290,-0.074,3103
5.291,-0.114,3103
5.292,-0.151,3103
5.293,-0.189,3103
5.294,-0.221,3103
5.295,-0.250,3103
5.296,-0.255,3103
5.297,-0.251,3103
5.298,-0.234,3081
5.299,-0.212,3081
5.300,-0.149,3081
5.301,-0.104,3081
5.302,-0.126,3081
5.303,-0.055,3081
5.304,-0.044,3081
5.305,-0.031,3081
5.306,-0.052,3081
5.307,-0.084,3077
5.308,-0.124,3077
5.309,-0.170,3077
5.310,-0.216,3077
5.311,-0.264,3077
5.312,-0.311,3077
5.313,-0.350,3077
5.314,-0.370,3077
5.315,-0.376,3077
5.316,-0.371,3077
5.317,-0.354,3071
5.318,-0.330,3071
5.319,-0.291,3071
5.320,-0.214,3071
5.321,-0.198,3071
5.322,-0.186,3071
5.323,-0.181,3071
5.324,-0.186,3071
5.325,-0.194,3071
5.326,-0.216,3071
5.327,-0.246,3073
5.328,-0.276,3073
5.329,-0.312,3073
5.330,-0.355,3073
5.331,-0.390,3073
5.332,-0.421,3073
5.333,-0.436,3073
5.334,-0.446,3073
5.335,-0.444,3073
5.336,-0.427,3079
5.337,-0.406,3079
5.338,-0.375,3079
5.339,-0.346,3079
5.340,-0.273,3079
5.341,-0.256,3079
5.342,-0.253,3079
5.343,-0.228,3079
5.344,-0.234,3079
5.345,-0.255,3063
5.346,-0.281,3063
5.347,-0.310,3063
5.348,-0.347,3063
5.349,-0.384,3063
5.350,-0.412,3063
5.351,-0.434,3063
5.352,-0.446,3063
5.353,-0.445,3063
5.354,-0.430,3063
5.355,-0.410,3063
5.356,-0.385,3071
5.357,-0.361,3071
5.358,-0.334,3071
5.359,-0.306,3071
5.360,-0.254,3071
5.361,-0.246,3071
5.362,-0.241,3071
5.363,-0.245,3071
5.364,-0.261,3071
5.365,-0.269,3070
5.366,-0.310,3070
5.367,-0.345,3070
5.368,-0.374,3070
5.369,-0.404,3070
5.370,-0.422,3070
5.371,-0.431,3070
5.372,-0.434,3070
5.373,-0.426,3070
5.374,-0.407,3070
5.375,-0.376,3067
5.376,-0.350,3067
5.377,-0.312,3067
5.378,-0.282,3067
5.379,-0.251,3067
5.380,-0.214,3067
5.381,-0.209,3067
5.382,-0.216,3067
5.383,-0.241,3067
5.384,-0.268,3061
5.385,-0.301,3061
5.386,-0.340,3061
5.387,-0.371,3061
5.388,-0.406,3061
5.389,-0.430,3061
5.390,-0.449,3061
5.391,-0.449,3061
5.392,-0.441,3061
5.393,-0.416,3061
5.394,-0.379,3066
5.395,-0.344,3066
5.396,-0.296,3066
5.397,-0.261,3066
5.398,-0.225,3066
5.399,-0.194,3066
5.400,-0.184,3066
5.401,-0.191,3066
5.402,-0.210,3066
5.403,-0.235,3067
5.404,-0.271,3067
5.405,-0.307,3067
5.406,-0.349,3067
5.407,-0.381,3067
5.408,-0.406,3067
5.409,-0.417,3067
5.410,-0.422,3067
5.411,-0.414,3067
5.412,-0.388,3067
5.413,-0.356,3057
5.414,-0.324,3057
5.415,-0.276,3057
5.416,-0.231,3057
5.417,-0.198,3057
5.418,-0.169,3057
5.419,-0.150,3057
5.420,-0.151,3057
5.421,-0.174,3057
5.422,-0.198,3070
5.423,-0.229,3070
5.424,-0.269,3070
5.425,-0.301,3070
5.426,-0.331,3070
5.427,-0.354,3070
5.428,-0.371,3070
5.429,-0.371,3070
5.430,-0.365,3070
5.431,-0.346,3070
5.432,-0.312,3056
5.433,-0.276,3056
5.434,-0.244,3056
5.435,-0.207,3056
5.436,-0.174,3056
5.437,-0.146,3056
5.438,-0.126,3056
5.439,-0.116,3056
5.440,-0.146,3056
5.441,-0.172,3082
5.442,-0.210,3082
5.443,-0.250,3082
5.444,-0.286,3082
5.445,-0.321,3082
5.446,-0.344,3082
5.447,-0.354,3082
5.448,-0.361,3082
5.449,-0.349,3082
5.450,-0.334,3082
5.451,-0.309,3075
5.452,-0.287,3075
5.453,-0.254,3075
5.454,-0.219,3075
5.455,-0.189,3075
5.456,-0.160,3075
5.457,-0.136,3075
5.458,-0.126,3075
5.459,-0.124,3075
5.460,-0.161,3094
5.461,-0.224,3094
5.462,-0.263,3094
5.463,-0.294,3094
5.464,-0.324,3094
5.465,-0.331,3094
5.466,-0.335,3094
5.467,-0.328,3094
5.468,-0.309,3094
5.469,-0.289,3068
5.470,-0.261,3068
5.471,-0.226,3068
5.472,-0.196,3068
5.473,-0.171,3068
5.474,-0.151,3068
5.475,-0.142,3068
5.476,-0.136,3068
5.477,-0.141,3068
5.478,-0.161,3068
5.479,-0.180,3083
5.480,-0.244,3083
5.481,-0.280,3083
5.482,-0.296,3083
5.483,-0.309,3083
5.484,-0.321,3083
5.485,-0.324,3083
5.486,-0.324,3083
5.487,-0.311,3083
5.488,-0.294,3079
5.489,-0.271,3079
5.490,-0.249,3079
5.491,-0.215,3079
5.492,-0.188,3079
5.493,-0.166,3079
5.494,-0.147,3079
5.495,-0.142,3079
5.496,-0.141,3079
5.497,-0.151,3079
5.498,-0.171,3090
5.499,-0.201,3090
5.500,-0.273,3090
5.501,-0.328,3090
5.502,-0.340,3090
5.503,-0.344,3090
5.504,-0.331,3090
5.505,-0.309,3090
5.506,-0.284,3084
5.507,-0.250,3084
5.508,-0.211,3084
5.509,-0.176,3084
5.510,-0.145,3084
5.511,-0.126,3084
5.512,-0.114,3084
5.513,-0.121,3084
5.514,-0.128,3084
5.515,-0.146,3084
5.516,-0.175,3087
5.517,-0.211,3087
5.518,-0.249,3087
5.519,-0.284,3087
5.520,-0.331,3087
5.521,-0.346,3087
5.522,-0.350,3087
5.523,-0.344,3087
5.524,-0.328,3087
5.525,-0.304,3080
5.526,-0.280,3080
5.527,-0.253,3080
5.528,-0.224,3080
5.529,-0.196,3080
5.530,-0.174,3080
5.531,-0.161,3080
5.532,-0.144,3080
5.533,-0.139,3080
5.534,-0.150,3080
5.535,-0.171,3074
5.536,-0.198,3074
5.537,-0.242,3074
5.538,-0.281,3074
5.539,-0.311,3074
5.540,-0.364,3074
5.541,-0.366,3074
5.542,-0.352,3074
5.543,-0.334,3074
5.544,-0.310,3061
5.545,-0.281,3061
5.546,-0.251,3061
5.547,-0.221,3061
5.548,-0.194,3061
5.549,-0.171,3061
5.550,-0.152,3061
5.551,-0.150,3061
5.552,-0.152,3061
5.553,-0.172,3061
5.554,-0.194,3076
5.555,-0.225,3076
5.556,-0.261,3076
5.557,-0.294,3076
5.558,-0.329,3076
5.559,-0.352,3076
5.560,-0.369,3076
5.561,-0.351,3076
5.562,-0.333,3076
5.563,-0.304,3049
5.564,-0.269,3049
5.565,-0.229,3049
5.566,-0.190,3049
5.567,-0.151,3049
5.568,-0.129,3049
5.569,-0.111,3049
5.570,-0.113,3049
5.571,-0.126,3049
5.572,-0.151,3049
5.573,-0.186,3049
5.574,-0.224,3082
5.575,-0.263,3082
5.576,-0.292,3082
5.577,-0.329,3082
5.578,-0.349,3082
5.579,-0.361,3082
5.580,-0.351,3082
5.581,-0.334,3082
5.582,-0.304,3082
5.583,-0.276,3069
5.584,-0.241,3069
5.585,-0.204,3069
5.586,-0.181,3069
5.587,-0.152,3069
5.588,-0.138,3069
5.589,-0.136,3069
5.590,-0.145,3069
5.591,-0.164,3069
5.592,-0.185,3069
5.593,-0.206,3073
5.594,-0.234,3073
5.595,-0.270,3073
5.596,-0.296,3073
5.597,-0.325,3073
5.598,-0.334,3073
5.599,-0.336,3073
5.600,-0.309,3073
5.601,-0.291,3073
5.602,-0.266,3073
5.603,-0.226,3073
5.604,-0.196,3073
5.605,-0.174,3073
5.606,-0.150,3073
5.607,-0.136,3073
5.608,-0.131,3073
5.609,-0.144,3073
5.610,-0.163,3073
5.611,-0.189,3073
5.612,-0.216,3082
5.613,-0.254,3082
5.614,-0.285,3082
5.615,-0.314,3082
5.616,-0.343,3082
5.617,-0.356,3082
5.618,-0.354,3082
5.619,-0.347,3082
5.620,-0.291,3052
5.621,-0.230,3052
5.622,-0.201,3052
5.623,-0.171,3052
5.624,-0.146,3052
5.625,-0.129,3052
5.626,-0.126,3052
5.627,-0.134,3052
5.628,-0.149,3052
5.629,-0.175,3052
5.630,-0.205,3072
5.631,-0.234,3072
5.632,-0.269,3072
5.633,-0.291,3072
5.634,-0.311,3072
5.635,-0.329,3072
5.636,-0.328,3072
5.637,-0.321,3072
5.638,-0.296,3072
5.639,-0.274,3072
5.640,-0.206,3060
5.641,-0.152,3060
5.642,-0.139,3060
5.643,-0.129,3060
5.644,-0.126,3060
5.645,-0.131,3060
5.646,-0.142,3060
5.647,-0.166,3060
5.648,-0.190,3066
5.649,-0.224,3066
5.650,-0.255,3066
5.651,-0.289,3066
5.652,-0.309,3066
5.653,-0.326,3066
5.654,-0.334,3066
5.655,-0.329,3066
5.656,-0.309,3066
5.657,-0.286,3066
5.658,-0.261,3061
5.659,-0.221,3061
5.660,-0.151,3061
5.661,-0.131,3061
5.662,-0.116,3061
5.663,-0.113,3061
5.664,-0.120,3061
5.665,-0.131,3061
5.666,-0.161,3061
5.667,-0.185,3076
5.668,-0.206,3076
5.669,-0.233,3076
5.670,-0.261,3076
5.671,-0.285,3076
5.672,-0.306,3076
5.673,-0.314,3076
5.674,-0.320,3076
5.675,-0.304,3076
5.676,-0.285,3076
5.677,-0.263,3059
5.678,-0.225,3059
5.679,-0.194,3059
5.680,-0.131,3059
5.681,-0.124,3059
5.682,-0.116,3059
5.683,-0.124,3059
5.684,-0.142,3059
5.685,-0.171,3059
5.686,-0.204,3063
5.687,-0.234,3063
5.688,-0.269,3063
5.689,-0.291,3063
5.690,-0.309,3063
5.691,-0.321,3063
5.692,-0.311,3063
5.693,-0.295,3063
5.694,-0.271,3063
5.695,-0.244,3063
5.696,-0.205,3065
5.697,-0.168,3065
5.698,-0.126,3065
5.699,-0.096,3065
5.700,-0.056,3065
5.701,-0.056,3065
5.702,-0.066,3065
5.703,-0.085,3065
5.704,-0.109,3065
5.705,-0.142,3092
5.706,-0.176,3092
5.707,-0.209,3092
5.708,-0.242,3092
5.709,-0.266,3092
5.710,-0.280,3092
5.711,-0.285,3092
5.712,-0.274,3092
5.713,-0.256,3092
5.714,-0.230,3092
5.715,-0.196,3083
5.716,-0.163,3083
5.717,-0.115,3083
5.718,-0.084,3083
5.719,-0.046,3083
5.720,-0.025,3083
5.721,-0.025,3083
5.722,-0.036,3083
5.723,-0.059,3083
5.724,-0.090,3085
5.725,-0.124,3085
5.726,-0.151,3085
5.727,-0.189,3085
5.728,-0.207,3085
5.729,-0.221,3085
5.730,-0.216,3085
5.731,-0.209,3085
5.732,-0.189,3085
5.733,-0.166,3085
5.734,-0.129,3074
5.735,-0.094,3074
5.736,-0.068,3074
5.737,-0.041,3074
5.738,-0.024,3074
5.739,-0.011,3074
5.740,-0.026,3074
5.741,-0.046,3074
5.742,-0.081,3074
5.743,-0.121,3097
5.744,-0.166,3097
5.745,-0.204,3097
5.746,-0.242,3097
5.747,-0.271,3097
5.748,-0.290,3097
5.749,-0.296,3097
5.750,-0.290,3097
5.751,-0.275,3097
5.752,-0.254,3097
5.753,-0.221,3091
5.754,-0.191,3091
5.755,-0.166,3091
5.756,-0.144,3091
5.757,-0.129,3091
5.758,-0.121,3091
5.759,-0.129,3091
5.760,-0.170,3091
5.761,-0.196,3091
5.762,-0.229,3078
5.763,-0.271,3078
5.764,-0.307,3078
5.765,-0.344,3078
5.766,-0.364,3078
5.767,-0.376,3078
5.768,-0.376,3078
5.769,-0.369,3078
5.770,-0.343,3078
5.771,-0.311,3078
5.772,-0.274,3096
5.773,-0.242,3096
5.774,-0.204,3096
5.775,-0.172,3096
5.776,-0.146,3096
5.777,-0.133,3096
5.778,-0.130,3096
5.779,-0.141,3096
5.780,-0.204,3096
5.781,-0.231,3078
5.782,-0.271,3078
5.783,-0.309,3078
5.784,-0.341,3078
5.785,-0.366,3078
5.786,-0.375,3078
5.787,-0.376,3078
5.788,-0.366,3078
5.789,-0.345,3078
5.790,-0.306,3078
5.791,-0.266,3078
5.792,-0.226,3078
5.793,-0.189,3078
5.794,-0.154,3078
5.795,-0.131,3078
5.796,-0.120,3078
5.797,-0.116,3078
5.798,-0.128,3078
5.799,-0.149,3078
5.800,-0.214,3079
5.801,-0.286,3079
5.802,-0.321,3079
5.803,-0.347,3079
5.804,-0.364,3079
5.805,-0.366,3079
5.806,-0.356,3079
5.807,-0.335,3079
5.808,-0.301,3079
5.809,-0.264,3074
5.810,-0.221,3074
5.811,-0.186,3074
5.812,-0.149,3074
5.813,-0.129,3074
5.814,-0.114,3074
5.815,-0.111,3074
5.816,-0.124,3074
5.817,-0.142,3074
5.818,-0.170,3074
5.819,-0.204,3074
5.820,-0.289,3057
5.821,-0.351,3057
5.822,-0.366,3057
5.823,-0.371,3057
5.824,-0.365,3057
5.825,-0.345,3057
5.826,-0.312,3057
5.827,-0.285,3057
5.828,-0.254,3056
5.829,-0.224,3056
5.830,-0.199,3056
5.831,-0.184,3056
5.832,-0.170,3056
5.833,-0.171,3056
5.834,-0.182,3056
5.835,-0.205,3056
5.836,-0.233,3056
5.837,-0.280,3056
5.838,-0.326,3051
5.839,-0.369,3051
5.840,-0.444,3051
5.841,-0.456,3051
5.842,-0.463,3051
5.843,-0.454,3051
5.844,-0.431,3051
5.845,-0.404,3051
5.846,-0.356,3051
5.847,-0.306,3065
5.848,-0.249,3065
5.849,-0.181,3065
5.850,-0.109,3065
5.851,-0.043,3065
5.852,0.030,3065
5.853,0.096,3065
5.854,0.169,3065
5.855,0.249,3065
5.856,0.326,3065
5.857,0.400,3020
5.858,0.491,3020
5.859,0.576,3020
5.860,0.806,3020
5.861,0.911,3020
5.862,1.059,3020
5.863,1.235,3020
5.864,1.449,3020
5.865,1.676,3020
5.866,1.904,3073
5.867,2.139,3073
5.868,2.335,3073
5.869,2.459,3073
5.870,2.515,3073
5.871,2.494,3073
5.872,2.389,3073
5.873,2.211,3073
5.874,2.006,3073
5.875,1.771,3073
5.876,1.536,3056
5.877,1.314,3056
5.878,1.094,3056
5.879,0.897,3056
5.880,0.505,3056
5.881,0.371,3056
5.882,0.226,3056
5.883,0.104,3056
5.884,-0.007,3056
5.885,-0.094,3043
5.886,-0.169,3043
5.887,-0.228,3043
5.888,-0.276,3043
5.889,-0.329,3043
5.890,-0.371,3043
5.891,-0.421,3043
5.892,-0.461,3043
5.893,-0.509,3043
5.894,-0.549,3043
5.895,-0.589,3074
5.896,-0.627,3074
5.897,-0.664,3074
5.898,-0.686,3074
5.899,-0.694,3074
5.900,-0.664,3074
5.901,-0.581,3074
5.902,-0.535,3074
5.903,-0.486,3064
5.904,-0.434,3064
5.905,-0.393,3064
5.906,-0.361,3064
5.907,-0.336,3064
5.908,-0.330,3064
5.909,-0.335,3064
5.910,-0.350,3064
5.911,-0.374,3064
5.912,-0.406,3064
5.913,-0.431,3058
5.914,-0.463,3058
5.915,-0.490,3058
5.916,-0.501,3058
5.917,-0.511,3058
5.918,-0.510,3058
5.919,-0.500,3058
5.920,-0.443,3058
5.921,-0.405,3058
5.922,-0.361,3077
5.923,-0.324,3077
5.924,-0.289,3077
5.925,-0.260,3077
5.926,-0.254,3077
5.927,-0.251,3077
5.928,-0.254,3077
5.929,-0.271,3077
5.930,-0.292,3077
5.931,-0.330,3077
5.932,-0.361,3056
5.933,-0.391,3056
5.934,-0.426,3056
5.935,-0.445,3056
5.936,-0.455,3056
5.937,-0.453,3056
5.938,-0.444,3056
5.939,-0.421,3056
5.940,-0.346,3056
5.941,-0.326,3094
5.942,-0.246,3094
5.943,-0.221,3094
5.944,-0.204,3094
5.945,-0.194,3094
5.946,-0.201,3094
5.947,-0.217,3094
5.948,-0.251,3094
5.949,-0.275,3094
5.950,-0.310,3074
5.951,-0.351,3074
5.952,-0.381,3074
5.953,-0.409,3074
5.954,-0.422,3074
5.955,-0.426,3074
5.956,-0.429,3074
5.957,-0.415,3074
5.958,-0.391,3074
5.959,-0.356,3074
5.960,-0.271,3092
5.961,-0.210,3092
5.962,-0.196,3092
5.963,-0.186,3092
5.964,-0.186,3092
5.965,-0.194,3092
5.966,-0.214,3092
5.967,-0.249,3092
5.968,-0.276,3095
5.969,-0.306,3095
5.970,-0.335,3095
5.971,-0.362,3095
5.972,-0.371,3095
5.973,-0.376,3095
5.974,-0.371,3095
5.975,-0.351,3095
5.976,-0.323,3095
5.977,-0.281,3095
5.978,-0.241,3091
5.979,-0.201,3091
5.980,-0.134,3091
5.981,-0.124,3091
5.982,-0.116,3091
5.983,-0.121,3091
5.984,-0.134,3091
5.985,-0.152,3091
5.986,-0.194,3091
5.987,-0.231,3083
5.988,-0.275,3083
5.989,-0.310,3083
5.990,-0.344,3083
5.991,-0.357,3083
5.992,-0.366,3083
5.993,-0.357,3083
5.994,-0.341,3083
5.995,-0.306,3083
5.996,-0.271,3083
5.997,-0.226,3083
5.998,-0.191,3083
5.999,-0.150,3083
6.000,-0.116,3083
6.001,-0.121,3083
6.002,-0.126,3083
6.003,-0.138,3083
6.004,-0.164,3083
6.005,-0.184,3083
6.006,-0.204,3084
6.007,-0.231,3084
6.008,-0.251,3084
6.009,-0.270,3084
6.010,-0.281,3084
6.011,-0.281,3084
6.012,-0.275,3084
6.013,-0.261,3084
6.014,-0.245,3084
6.015,-0.212,3084
6.016,-0.186,3079
6.017,-0.161,3079
6.018,-0.131,3079
6.019,-0.114,3079
6.020,-0.101,3079
6.021,-0.111,3079
6.022,-0.129,3079
6.023,-0.151,3079
6.024,-0.174,3079
6.025,-0.205,3084
6.026,-0.263,3084
6.027,-0.276,3084
6.028,-0.291,3084
6.029,-0.296,3084
6.030,-0.289,3084
6.031,-0.269,3084
6.032,-0.242,3084
6.033,-0.205,3084
6.034,-0.166,3109
6.035,-0.130,3109
6.036,-0.096,3109
6.037,-0.074,3109
6.038,-0.062,3109
6.039,-0.051,3109
6.040,-0.091,3109
6.041,-0.116,3109
6.042,-0.149,3109
6.043,-0.185,3080
6.044,-0.216,3080
6.045,-0.246,3080
6.046,-0.266,3080
6.047,-0.274,3080
6.048,-0.275,3080
6.049,-0.265,3080
6.050,-0.241,3080
6.051,-0.204,3080
6.052,-0.171,3080
6.053,-0.129,3071
6.054,-0.089,3071
6.055,-0.049,3071
6.056,-0.021,3071
6.057,0.010,3071
6.058,0.016,3071
6.059,0.019,3071
6.060,-0.026,3071
6.061,-0.091,3041
6.062,-0.122,3041
6.063,-0.149,3041
6.064,-0.169,3041
6.065,-0.176,3041
6.066,-0.172,3041
6.067,-0.161,3041
6.068,-0.134,3041
6.069,-0.104,3041
6.070,-0.064,3041
6.071,-0.025,3041
6.072,0.013,3084
6.073,0.039,3084
6.074,0.055,3084
6.075,0.060,3084
6.076,0.056,3084
6.077,0.036,3084
6.078,0.011,3084
6.079,-0.025,3084
6.080,-0.098,3074
6.081,-0.164,3074
6.082,-0.185,3074
6.083,-0.201,3074
6.084,-0.204,3074
6.085,-0.195,3074
6.086,-0.174,3074
6.087,-0.144,3074
6.088,-0.104,3074
6.089,-0.058,3074
6.090,-0.015,3077
6.091,0.026,3077
6.092,0.051,3077
6.093,0.069,3077
6.094,0.072,3077
6.095,0.058,3077
6.096,0.036,3077
6.097,0.009,3077
6.098,-0.034,3077
6.099,-0.080,3077
6.100,-0.164,3074
6.101,-0.198,3074
6.102,-0.206,3074
6.103,-0.196,3074
6.104,-0.186,3074
6.105,-0.164,3074
6.106,-0.131,3074
6.107,-0.091,3074
6.108,-0.066,3062
6.109,-0.033,3062
6.110,-0.024,3062
6.111,-0.014,3062
6.112,-0.014,3062
6.113,-0.026,3062
6.114,-0.049,3062
6.115,-0.081,3062
6.116,-0.114,3062
6.117,-0.150,3062
6.118,-0.191,3058
6.119,-0.229,3058
6.120,-0.273,3058
6.121,-0.274,3058
6.122,-0.268,3058
6.123,-0.251,3058
6.124,-0.224,3058
6.125,-0.190,3058
6.126,-0.154,3058
6.127,-0.126,3065
6.128,-0.104,3065
6.129,-0.085,3065
6.130,-0.084,3065
6.131,-0.089,3065
6.132,-0.106,3065
6.133,-0.134,3065
6.134,-0.174,3065
6.135,-0.212,3065
6.136,-0.264,3065
6.137,-0.305,3074
6.138,-0.343,3074
6.139,-0.366,3074
6.140,-0.371,3074
6.141,-0.366,3074
6.142,-0.350,3074
6.143,-0.311,3074
6.144,-0.280,3074
6.145,-0.234,3074
6.146,-0.206,3067
6.147,-0.176,3067
6.148,-0.164,3067
6.149,-0.161,3067
6.150,-0.165,3067
6.151,-0.181,3067
6.152,-0.207,3067
6.153,-0.246,3067
6.154,-0.286,3067
6.155,-0.331,3067
6.156,-0.369,3062
6.157,-0.404,3062
6.158,-0.429,3062
6.159,-0.443,3062
6.160,-0.426,3062
6.161,-0.412,3062
6.162,-0.381,3062
6.163,-0.349,3062
6.164,-0.307,3062
6.165,-0.273,3045
6.166,-0.244,3045
6.167,-0.215,3045
6.168,-0.209,3045
6.169,-0.207,3045
6.170,-0.216,3045
6.171,-0.244,3045
6.172,-0.269,3045
6.173,-0.299,3045
6.174,-0.341,3045
6.175,-0.381,3068
6.176,-0.415,3068
6.177,-0.441,3068
6.178,-0.455,3068
6.179,-0.455,3068
6.180,-0.421,3068
6.181,-0.390,3068
6.182,-0.356,3068
6.183,-0.326,3068
6.184,-0.294,3060
6.185,-0.270,3060
6.186,-0.250,3060
6.187,-0.234,3060
6.188,-0.230,3060
6.189,-0.241,3060
6.190,-0.253,3060
6.191,-0.274,3060
6.192,-0.301,3060
6.193,-0.335,3060
6.194,-0.369,3092
6.195,-0.391,3092
6.196,-0.420,3092
6.197,-0.426,3092
6.198,-0.429,3092
6.199,-0.415,3092
6.200,-0.361,3092
6.201,-0.325,3092
6.202,-0.292,3092
6.203,-0.254,3082
6.204,-0.226,3082
6.205,-0.206,3082
6.206,-0.194,3082
6.207,-0.195,3082
6.208,-0.205,3082
6.209,-0.221,3082
6.210,-0.254,3082
6.211,-0.286,3082
6.212,-0.324,3082
6.213,-0.354,3089
6.214,-0.376,3089
6.215,-0.401,3089
6.216,-0.410,3089
6.217,-0.412,3089
6.218,-0.406,3089
6.219,-0.376,3089
6.220,-0.295,3089
6.221,-0.269,3089
6.222,-0.240,3055
6.223,-0.207,3055
6.224,-0.185,3055
6.225,-0.169,3055
6.226,-0.163,3055
6.227,-0.164,3055
6.228,-0.176,3055
6.229,-0.203,3055
6.230,-0.230,3055
6.231,-0.271,3055
6.232,-0.310,3080
6.233,-0.349,3080
6.234,-0.369,3080
6.235,-0.386,3080
6.236,-0.390,3080
6.237,-0.388,3080
6.238,-0.374,3080
6.239,-0.356,3080
6.240,-0.294,3080
6.241,-0.266,3090
6.242,-0.231,3090
6.243,-0.206,3090
6.244,-0.189,3090
6.245,-0.180,3090
6.246,-0.180,3090
6.247,-0.194,3090
6.248,-0.214,3090
6.249,-0.250,3090
6.250,-0.271,3090
6.251,-0.304,3088
6.252,-0.354,3088
6.253,-0.361,3088
6.254,-0.355,3088
6.255,-0.343,3088
6.256,-0.321,3088
6.257,-0.289,3088
6.258,-0.254,3088
6.259,-0.211,3088
6.260,-0.141,3096
6.261,-0.109,3096
6.262,-0.109,3096
6.263,-0.121,3096
6.264,-0.138,3096
6.265,-0.172,3096
6.266,-0.209,3096
6.267,-0.250,3096
6.268,-0.284,3077
6.269,-0.314,3077
6.270,-0.344,3077
6.271,-0.354,3077
6.272,-0.362,3077
6.273,-0.352,3077
6.274,-0.334,3077
6.275,-0.306,3077
6.276,-0.269,3077
6.277,-0.228,3077
6.278,-0.190,3060
6.279,-0.161,3060
6.280,-0.116,3060
6.281,-0.114,3060
6.282,-0.128,3060
6.283,-0.151,3060
6.284,-0.186,3060
6.285,-0.216,3060
6.286,-0.261,3060
6.287,-0.291,3079
6.288,-0.329,3079
6.289,-0.349,3079
6.290,-0.356,3079
6.291,-0.356,3079
6.292,-0.346,3079
6.293,-0.321,3079
6.294,-0.286,3079
6.295,-0.249,3079
6.296,-0.206,3079
6.297,-0.171,3073
6.298,-0.135,3073
6.299,-0.114,3073
6.300,-0.109,3073
6.301,-0.116,3073
6.302,-0.141,3073
6.303,-0.166,3073
6.304,-0.190,3073
6.305,-0.224,3073
6.306,-0.256,3064
6.307,-0.291,3064
6.308,-0.326,3064
6.309,-0.349,3064
6.310,-0.359,3064
6.311,-0.355,3064
6.312,-0.341,3064
6.313,-0.309,3064
6.314,-0.274,3064
6.315,-0.231,3064
6.316,-0.194,3064
6.317,-0.161,3077
6.318,-0.136,3077
6.319,-0.126,3077
6.320,-0.161,3077
6.321,-0.184,3077
6.322,-0.214,3077
6.323,-0.254,3077
6.324,-0.291,3077
6.325,-0.331,3077
6.326,-0.366,3082
6.327,-0.381,3082
6.328,-0.384,3082
6.329,-0.378,3082
6.330,-0.365,3082
6.331,-0.336,3082
6.332,-0.306,3082
6.333,-0.265,3082
6.334,-0.216,3082
6.335,-0.181,3082
6.336,-0.142,3054
6.337,-0.121,3054
6.338,-0.109,3054
6.339,-0.114,3054
6.340,-0.161,3054
6.341,-0.190,3054
6.342,-0.228,3054
6.343,-0.270,3054
6.344,-0.309,3054
6.345,-0.341,3062
6.346,-0.365,3062
6.347,-0.380,3062
6.348,-0.385,3062
6.349,-0.381,3062
6.350,-0.361,3062
6.351,-0.333,3062
6.352,-0.291,3062
6.353,-0.254,3062
6.354,-0.209,3062
6.355,-0.175,3075
6.356,-0.144,3075
6.357,-0.101,3075
6.358,-0.126,3075
6.359,-0.135,3075
6.360,-0.191,3075
6.361,-0.223,3075
6.362,-0.263,3075
6.363,-0.296,3075
6.364,-0.330,3063
6.365,-0.356,3063
6.366,-0.371,3063
6.367,-0.371,3063
6.368,-0.369,3063
6.369,-0.346,3063
6.370,-0.311,3063
6.371,-0.276,3063
6.372,-0.234,3063
6.373,-0.195,3063
6.374,-0.164,3062
6.375,-0.134,3062
6.376,-0.116,3062
6.377,-0.111,3062
6.378,-0.121,3062
6.379,-0.134,3062
6.380,-0.216,3062
6.381,-0.229,3062
6.382,-0.268,3062
6.383,-0.294,3072
6.384,-0.321,3072
6.385,-0.330,3072
6.386,-0.334,3072
6.387,-0.323,3072
6.388,-0.296,3072
6.389,-0.271,3072
6.390,-0.241,3072
6.391,-0.204,3072
6.392,-0.171,3072
6.393,-0.138,3069
6.394,-0.121,3069
6.395,-0.106,3069
6.396,-0.104,3069
6.397,-0.111,3069
6.398,-0.129,3069
6.399,-0.164,3069
6.400,-0.242,3069
6.401,-0.264,3069
6.402,-0.304,3073
6.403,-0.346,3073
6.404,-0.354,3073
6.405,-0.354,3073
6.406,-0.344,3073
6.407,-0.321,3073
6.408,-0.284,3073
6.409,-0.244,3073
6.410,-0.205,3073
6.411,-0.176,3084
6.412,-0.151,3084
6.413,-0.144,3084
6.414,-0.142,3084
6.415,-0.149,3084
6.416,-0.169,3084
6.417,-0.186,3084
6.418,-0.214,3084
6.419,-0.253,3084
6.420,-0.324,3093
6.421,-0.352,3093
6.422,-0.351,3093
6.423,-0.344,3093
6.424,-0.324,3093
6.425,-0.291,3093
6.426,-0.256,3093
6.427,-0.216,3093
6.428,-0.181,3093
6.429,-0.149,3077
6.430,-0.126,3077
6.431,-0.121,3077
6.432,-0.121,3077
6.433,-0.134,3077
6.434,-0.160,3077
6.435,-0.186,3077
6.436,-0.215,3077
6.437,-0.249,3077
6.438,-0.281,3077
6.439,-0.296,3085
6.440,-0.333,3085
6.441,-0.330,3085
6.442,-0.321,3085
6.443,-0.295,3085
6.444,-0.270,3085
6.445,-0.233,3085
6.446,-0.196,3085
6.447,-0.166,3085
6.448,-0.131,3099
6.449,-0.107,3099
6.450,-0.101,3099
6.451,-0.104,3099
6.452,-0.111,3099
6.453,-0.133,3099
6.454,-0.165,3099
6.455,-0.194,3099
6.456,-0.230,3099
6.457,-0.269,3099
6.458,-0.296,3088
6.459,-0.321,3088
6.460,-0.330,3088
6.461,-0.321,3088
6.462,-0.296,3088
6.463,-0.266,3088
6.464,-0.228,3088
6.465,-0.191,3088
6.466,-0.161,3088
6.467,-0.130,3076
6.468,-0.109,3076
6.469,-0.095,3076
6.470,-0.091,3076
6.471,-0.101,3076
6.472,-0.124,3076
6.473,-0.151,3076
6.474,-0.189,3076
6.475,-0.226,3076
6.476,-0.263,3076
6.477,-0.292,3085
6.478,-0.324,3085
6.479,-0.335,3085
6.480,-0.355,3085
6.481,-0.309,3085
6.482,-0.285,3085
6.483,-0.256,3085
6.484,-0.224,3085
6.485,-0.193,3085
6.486,-0.166,3092
6.487,-0.141,3092
6.488,-0.126,3092
6.489,-0.124,3092
6.490,-0.128,3092
6.491,-0.142,3092
6.492,-0.168,3092
6.493,-0.194,3092
6.494,-0.225,3092
6.495,-0.251,3092
6.496,-0.273,3078
6.497,-0.301,3078
6.498,-0.314,3078
6.499,-0.326,3078
6.500,-0.306,3078
6.501,-0.290,3078
6.502,-0.264,3078
6.503,-0.226,3078
6.504,-0.191,3078
6.505,-0.161,3060
6.506,-0.131,3060
6.507,-0.115,3060
6.508,-0.106,3060
6.509,-0.107,3060
6.510,-0.122,3060
6.511,-0.146,3060
6.512,-0.176,3060
6.513,-0.210,3060
6.514,-0.231,3060
6.515,-0.251,3100
6.516,-0.269,3100
6.517,-0.271,3100
6.518,-0.269,3100
6.519,-0.254,3100
6.520,-0.191,3100
6.521,-0.165,3100
6.522,-0.128,3100
6.523,-0.095,3100
6.524,-0.068,3092
6.525,-0.046,3092
6.526,-0.031,3092
6.527,-0.031,3092
6.528,-0.036,3092
6.529,-0.056,3092
6.530,-0.091,3092
6.531,-0.124,3092
6.532,-0.169,3092
6.533,-0.209,3092
6.534,-0.253,3072
6.535,-0.282,3072
6.536,-0.301,3072
6.537,-0.296,3072
6.538,-0.276,3072
6.539,-0.254,3072
6.540,-0.160,3072
6.541,-0.104,3072
6.542,-0.070,3072
6.543,-0.086,3080
6.544,-0.009,3080
6.545,0.019,3080
6.546,0.024,3080
6.547,0.019,3080
6.548,-0.006,3080
6.549,-0.030,3080
6.550,-0.062,3080
6.551,-0.101,3080
6.552,-0.133,3080
6.553,-0.161,3082
6.554,-0.182,3082
6.555,-0.193,3082
6.556,-0.201,3082
6.557,-0.204,3082
6.558,-0.194,3082
6.559,-0.181,3082
6.560,-0.124,3082
6.561,-0.092,3082
6.562,-0.071,3064
6.563,-0.056,3064
6.564,-0.050,3064
6.565,-0.051,3064
6.566,-0.064,3064
6.567,-0.086,3064
6.568,-0.111,3064
6.569,-0.146,3064
6.570,-0.190,3064
6.571,-0.224,3064
6.572,-0.264,3064
6.573,-0.295,3069
6.574,-0.323,3069
6.575,-0.334,3069
6.576,-0.331,3069
6.577,-0.325,3069
6.578,-0.299,3069
6.579,-0.269,3069
6.580,-0.193,3069
6.581,-0.169,3073
6.582,-0.129,3073
6.583,-0.124,3073
6.584,-0.131,3073
6.585,-0.150,3073
6.586,-0.184,3073
6.587,-0.219,3073
6.588,-0.266,3073
6.589,-0.302,3073
6.590,-0.336,3073
6.591,-0.357,3083
6.592,-0.375,3083
6.593,-0.374,3083
6.594,-0.367,3083
6.595,-0.349,3083
6.596,-0.311,3083
6.597,-0.276,3083
6.598,-0.241,3083
6.599,-0.198,3083
6.600,-0.131,3064
6.601,-0.134,3064
6.602,-0.142,3064
6.603,-0.166,3064
6.604,-0.190,3064
6.605,-0.221,3064
6.606,-0.256,3064
6.607,-0.291,3064
6.608,-0.328,3064
6.609,-0.349,3091
6.610,-0.356,3091
6.611,-0.356,3091
6.612,-0.347,3091
6.613,-0.331,3091
6.614,-0.296,3091
6.615,-0.266,3091
6.616,-0.233,3091
6.617,-0.203,3091
6.618,-0.180,3091
6.619,-0.165,3062
6.620,-0.149,3062
6.621,-0.151,3062
6.622,-0.174,3062
6.623,-0.196,3062
6.624,-0.226,3062
6.625,-0.264,3062
6.626,-0.291,3062
6.627,-0.312,3062
6.628,-0.329,3051
6.629,-0.329,3051
6.630,-0.321,3051
6.631,-0.304,3051
6.632,-0.282,3051
6.633,-0.261,3051
6.634,-0.234,3051
6.635,-0.209,3051
6.636,-0.184,3051
6.637,-0.163,3051
6.638,-0.141,3056
6.639,-0.131,3056
6.640,-0.149,3056
6.641,-0.171,3056
6.642,-0.195,3056
6.643,-0.225,3056
6.644,-0.269,3056
6.645,-0.301,3056
6.646,-0.334,3056
6.647,-0.351,3063
6.648,-0.366,3063
6.649,-0.369,3063
6.650,-0.355,3063
6.651,-0.344,3063
6.652,-0.324,3063
6.653,-0.292,3063
6.654,-0.264,3063
6.655,-0.242,3063
6.656,-0.221,3063
6.657,-0.211,3076
6.658,-0.214,3076
6.659,-0.233,3076
6.660,-0.290,3076
6.661,-0.351,3076
6.662,-0.374,3076
6.663,-0.391,3076
6.664,-0.400,3076
6.665,-0.388,3087
6.666,-0.362,3087
6.667,-0.311,3087
6.668,-0.251,3087
6.669,-0.166,3087
6.670,-0.054,3087
6.671,0.069,3087
6.672,0.206,3087
6.673,0.351,3087
6.674,0.504,3087
6.675,0.656,3083
6.676,0.806,3083
6.677,0.944,3083
6.678,1.075,3083
6.679,1.196,3083
6.680,1.464,3083
6.681,1.574,3083
6.682,1.709,3083
6.683,1.849,3083
6.684,1.990,3087
6.685,2.114,3087
6.686,2.212,3087
6.687,2.275,3087
6.688,2.304,3087
