Czas(s),EKG_Surowe(mV),PPG_Surowe(ADC)
0.000,-1.288,3360
0.001,-1.173,3361
0.002,-0.882,3361
0.003,-0.588,3361
0.004,-0.220,3361
0.005,0.100,3361
0.006,0.340,3361
0.007,0.463,3361
0.008,0.507,3361
0.009,0.477,3361
0.010,0.410,3385
0.011,0.287,3385
0.012,0.130,3385
0.013,-0.182,3385
0.014,-0.550,3385
0.015,-0.863,3385
0.016,-1.087,3385
0.017,-1.228,3385
0.018,-1.262,3385
0.019,-1.248,3385
0.020,-1.055,3365
0.021,-0.593,3365
0.022,-0.250,3365
0.023,0.068,3365
0.024,0.287,3365
0.025,0.417,3365
0.026,0.453,3365
0.027,0.427,3365
0.028,0.347,3372
0.029,0.233,3372
0.030,0.087,3372
0.031,-0.223,3372
0.032,-0.588,3372
0.033,-0.897,3372
0.034,-1.110,3372
0.035,-1.230,3372
0.036,-1.262,3372
0.037,-1.232,3372
0.038,-1.160,3367
0.039,-1.042,3367
0.040,-0.490,3367
0.041,-0.182,3367
0.042,0.133,3367
0.043,0.352,3367
0.044,0.472,3367
0.045,0.512,3367
0.046,0.472,3367
0.047,0.393,3378
0.048,0.273,3378
0.049,0.102,3378
0.050,-0.212,3378
0.051,-0.573,3378
0.052,-0.873,3378
0.053,-1.100,3378
0.054,-1.222,3378
0.055,-1.252,3378
0.056,-1.222,3378
0.057,-1.145,3360
0.058,-1.028,3360
0.059,-0.863,3360
0.060,-0.128,3360
0.061,0.128,3360
0.062,0.343,3360
0.063,0.463,3360
0.064,0.502,3360
0.065,0.463,3360
0.066,0.388,3350
0.067,0.263,3350
0.068,0.095,3350
0.069,-0.228,3350
0.070,-0.588,3350
0.071,-0.897,3350
0.072,-1.103,3350
0.073,-1.220,3350
0.074,-1.252,3350
0.075,-1.212,3350
0.076,-1.147,3364
0.077,-1.028,3364
0.078,-0.853,3364
0.079,-0.537,3364
0.080,0.182,3364
0.081,0.352,3364
0.082,0.463,3364
0.083,0.500,3364
0.084,0.450,3364
0.085,0.378,3379
0.086,0.268,3379
0.087,0.098,3379
0.088,-0.217,3379
0.089,-0.598,3379
0.090,-0.892,3379
0.091,-1.087,3379
0.092,-1.208,3379
0.093,-1.238,3379
0.094,-1.202,3379
0.095,-1.137,3354
0.096,-1.022,3354
0.097,-0.853,3354
0.098,-0.532,3354
0.099,-0.180,3354
0.100,0.367,3354
0.101,0.458,3354
0.102,0.495,3354
0.103,0.463,3354
0.104,0.385,3350
0.105,0.268,3350
0.106,0.102,3350
0.107,-0.210,3350
0.108,-0.568,3350
0.109,-0.858,3350
0.110,-1.062,3350
0.111,-1.183,3350
0.112,-1.220,3350
0.113,-1.183,3350
0.114,-1.105,3350
0.115,-1.008,3348
0.116,-0.833,3348
0.117,-0.527,3348
0.118,-0.175,3348
0.119,0.133,3348
0.120,0.453,3348
0.121,0.460,3348
0.122,0.412,3348
0.123,0.345,3348
0.124,0.233,3351
0.125,0.052,3351
0.126,-0.265,3351
0.127,-0.623,3351
0.128,-0.922,3351
0.129,-1.137,3351
0.130,-1.242,3351
0.131,-1.260,3351
0.132,-1.222,3351
0.133,-1.143,3351
0.134,-1.022,3368
0.135,-0.843,3368
0.136,-0.527,3368
0.137,-0.172,3368
0.138,0.133,3368
0.139,0.347,3368
0.140,0.472,3368
0.141,0.448,3368
0.142,0.378,3368
0.143,0.258,3345
0.144,0.070,3345
0.145,-0.255,3345
0.146,-0.618,3345
0.147,-0.912,3345
0.148,-1.140,3345
0.149,-1.248,3345
0.150,-1.260,3345
0.151,-1.228,3345
0.152,-1.147,3345
0.153,-1.035,3351
0.154,-0.858,3351
0.155,-0.537,3351
0.156,-0.193,3351
0.157,0.113,3351
0.158,0.312,3351
0.159,0.438,3351
0.160,0.432,3351
0.161,0.372,3351
0.162,0.258,3335
0.163,0.087,3335
0.164,-0.230,3335
0.165,-0.593,3335
0.166,-0.892,3335
0.167,-1.107,3335
0.168,-1.218,3335
0.169,-1.250,3335
0.170,-1.212,3335
0.171,-1.140,3335
0.172,-1.025,3332
0.173,-0.853,3332
0.174,-0.547,3332
0.175,-0.207,3332
0.176,0.102,3332
0.177,0.312,3332
0.178,0.432,3332
0.179,0.468,3332
0.180,0.352,3350
0.181,0.033,3350
0.182,-0.260,3350
0.183,-0.603,3350
0.184,-0.897,3350
0.185,-1.097,3350
0.186,-1.212,3350
0.187,-1.232,3350
0.188,-1.205,3350
0.189,-1.130,3350
0.190,-1.018,3322
0.191,-0.823,3322
0.192,-0.500,3322
0.193,-0.147,3322
0.194,0.147,3322
0.195,0.352,3322
0.196,0.455,3322
0.197,0.477,3322
0.198,0.440,3322
0.199,0.367,3322
0.200,0.028,3343
0.201,-0.623,3343
0.202,-0.912,3343
0.203,-1.133,3343
0.204,-1.228,3343
0.205,-1.252,3343
0.206,-1.212,3343
0.207,-1.135,3343
0.208,-1.018,3353
0.209,-0.833,3353
0.210,-0.512,3353
0.211,-0.163,3353
0.212,0.142,3353
0.213,0.347,3353
0.214,0.453,3353
0.215,0.470,3353
0.216,0.438,3353
0.217,0.362,3353
0.218,0.253,3353
0.219,0.062,3353
0.220,-0.688,3353
0.221,-0.922,3353
0.222,-1.133,3353
0.223,-1.238,3353
0.224,-1.262,3353
0.225,-1.228,3353
0.226,-1.147,3353
0.227,-1.020,3365
0.228,-0.830,3365
0.229,-0.507,3365
0.230,-0.163,3365
0.231,0.142,3365
0.232,0.352,3365
0.233,0.463,3365
0.234,0.492,3365
0.235,0.458,3365
0.236,0.383,3365
0.237,0.270,3367
0.238,0.077,3367
0.239,-0.245,3367
0.240,-0.940,3367
0.241,-1.110,3367
0.242,-1.220,3367
0.243,-1.252,3367
0.244,-1.218,3367
0.245,-1.133,3367
0.246,-1.015,3369
0.247,-0.823,3369
0.248,-0.502,3369
0.249,-0.147,3369
0.250,0.140,3369
0.251,0.345,3369
0.252,0.450,3369
0.253,0.468,3369
0.254,0.432,3369
0.255,0.355,3369
0.256,0.235,3355
0.257,0.058,3355
0.258,-0.263,3355
0.259,-0.642,3355
0.260,-1.163,3355
0.261,-1.242,3355
0.262,-1.258,3355
0.263,-1.232,3355
0.264,-1.153,3355
0.265,-1.032,3356
0.266,-0.833,3356
0.267,-0.502,3356
0.268,-0.128,3356
0.269,0.147,3356
0.270,0.350,3356
0.271,0.453,3356
0.272,0.470,3356
0.273,0.438,3356
0.274,0.225,3377
0.275,-0.282,3377
0.276,-0.647,3377
0.277,-0.932,3377
0.278,-1.137,3377
0.279,-1.250,3377
0.280,-1.225,3377
0.281,-1.167,3377
0.282,-1.050,3351
0.283,-0.853,3351
0.284,-0.530,3351
0.285,-0.168,3351
0.286,0.133,3351
0.287,0.338,3351
0.288,0.438,3351
0.289,0.460,3351
0.290,0.422,3351
0.291,0.340,3351
0.292,0.228,3362
0.293,0.030,3362
0.294,-0.290,3362
0.295,-0.652,3362
0.296,-0.935,3362
0.297,-1.135,3362
0.298,-1.232,3362
0.299,-1.260,3362
0.300,-1.110,3362
0.301,-1.018,3356
0.302,-0.818,3356
0.303,-0.492,3356
0.304,-0.128,3356
0.305,0.158,3356
0.306,0.370,3356
0.307,0.465,3356
0.308,0.480,3356
0.309,0.448,3356
0.310,0.372,3356
0.311,0.253,3360
0.312,0.043,3360
0.313,-0.297,3360
0.314,-0.657,3360
0.315,-0.935,3360
0.316,-1.133,3360
0.317,-1.228,3360
0.318,-1.250,3360
0.319,-1.208,3360
0.320,-0.983,3370
0.321,-0.453,3370
0.322,-0.113,3370
0.323,0.182,3370
0.324,0.375,3370
0.325,0.470,3370
0.326,0.497,3370
0.327,0.450,3370
0.328,0.367,3370
0.329,0.245,3331
0.330,0.043,3331
0.331,-0.297,3331
0.332,-0.662,3331
0.333,-0.938,3331
0.334,-1.140,3331
0.335,-1.228,3331
0.336,-1.238,3331
0.337,-1.192,3331
0.338,-1.100,3331
0.339,-0.983,3331
0.340,-0.383,3331
0.341,-0.090,3331
0.342,0.205,3331
0.343,0.388,3331
0.344,0.492,3331
0.345,0.497,3331
0.346,0.450,3331
0.347,0.372,3331
0.348,0.250,3369
0.349,0.045,3369
0.350,-0.292,3369
0.351,-0.657,3369
0.352,-0.938,3369
0.353,-1.143,3369
0.354,-1.228,3369
0.355,-1.238,3369
0.356,-1.202,3369
0.357,-1.110,3369
0.358,-1.005,3366
0.359,-0.805,3366
0.360,-0.072,3366
0.361,0.158,3366
0.362,0.367,3366
0.363,0.455,3366
0.364,0.465,3366
0.365,0.430,3366
0.366,0.357,3366
0.367,0.247,3357
0.368,0.037,3357
0.369,-0.300,3357
0.370,-0.660,3357
0.371,-0.943,3357
0.372,-1.145,3357
0.373,-1.250,3357
0.374,-1.292,3357
0.375,-1.252,3357
0.376,-1.167,3357
0.377,-1.052,3357
0.378,-0.848,3363
0.379,-0.512,3363
0.380,0.180,3363
0.381,0.338,3363
0.382,0.435,3363
0.383,0.458,3363
0.384,0.427,3363
0.385,0.350,3363
0.386,0.233,3363
0.387,0.043,3357
0.388,-0.302,3357
0.389,-0.660,3357
0.390,-0.935,3357
0.391,-1.133,3357
0.392,-1.222,3357
0.393,-1.248,3357
0.394,-1.212,3357
0.395,-1.133,3357
0.396,-1.012,3357
0.397,-0.820,3345
0.398,-0.482,3345
0.399,-0.130,3345
0.400,0.367,3345
0.401,0.430,3345
0.402,0.448,3345
0.403,0.407,3345
0.404,0.310,3345
0.405,0.198,3345
0.406,-0.010,3353
0.407,-0.340,3353
0.408,-0.682,3353
0.409,-0.945,3353
0.410,-1.137,3353
0.411,-1.228,3353
0.412,-1.228,3353
0.413,-1.180,3353
0.414,-1.100,3353
0.415,-0.985,3353
0.416,-0.775,3338
0.417,-0.432,3338
0.418,-0.102,3338
0.419,0.188,3338
0.420,0.477,3338
0.421,0.477,3338
0.422,0.438,3338
0.423,0.347,3338
0.424,0.225,3328
0.425,-0.343,3328
0.426,-0.682,3328
0.427,-0.965,3328
0.428,-1.160,3328
0.429,-1.252,3328
0.430,-1.292,3328
0.431,-1.232,3328
0.432,-1.147,3328
0.433,-1.025,3328
0.434,-0.818,3358
0.435,-0.458,3358
0.436,-0.107,3358
0.437,0.182,3358
0.438,0.380,3358
0.439,0.472,3358
0.440,0.438,3358
0.441,0.352,3358
0.442,0.247,3358
0.443,0.037,3344
0.444,-0.330,3344
0.445,-0.682,3344
0.446,-0.965,3344
0.447,-1.145,3344
0.448,-1.232,3344
0.449,-1.242,3344
0.450,-1.202,3344
0.451,-1.127,3344
0.452,-1.002,3344
0.453,-0.782,3333
0.454,-0.450,3333
0.455,-0.107,3333
0.456,0.170,3333
0.457,0.345,3333
0.458,0.427,3333
0.459,0.450,3333
0.460,0.292,3333
0.461,0.195,3333
0.462,-0.025,3361
0.463,-0.372,3361
0.464,-0.713,3361
0.465,-1.010,3361
0.466,-1.190,3361
0.467,-1.292,3361
0.468,-1.302,3361
0.469,-1.248,3361
0.470,-1.163,3361
0.471,-1.042,3361
0.472,-0.823,3341
0.473,-0.460,3341
0.474,-0.107,3341
0.475,0.195,3341
0.476,0.393,3341
0.477,0.495,3341
0.478,0.507,3341
0.479,0.460,3341
0.480,0.228,3341
0.481,0.037,3348
0.482,-0.335,3348
0.483,-0.682,3348
0.484,-0.970,3348
0.485,-1.160,3348
0.486,-1.258,3348
0.487,-1.290,3348
0.488,-1.230,3348
0.489,-1.153,3348
0.490,-1.032,3348
0.491,-0.818,3344
0.492,-0.465,3344
0.493,-0.128,3344
0.494,0.152,3344
0.495,0.345,3344
0.496,0.432,3344
0.497,0.455,3344
0.498,0.410,3344
0.499,0.318,3344
0.500,-0.055,3372
0.501,-0.693,3372
0.502,-0.968,3372
0.503,-1.150,3372
0.504,-1.238,3372
0.505,-1.258,3372
0.506,-1.212,3372
0.507,-1.135,3372
0.508,-1.010,3372
0.509,-0.777,3357
0.510,-0.425,3357
0.511,-0.090,3357
0.512,0.193,3357
0.513,0.378,3357
0.514,0.458,3357
0.515,0.463,3357
0.516,0.417,3357
0.517,0.318,3357
0.518,0.203,3357
0.519,-0.033,3375
0.520,-0.782,3375
0.521,-1.015,3375
0.522,-1.202,3375
0.523,-1.302,3375
0.524,-1.310,3375
0.525,-1.250,3375
0.526,-1.163,3375
0.527,-1.022,3375
0.528,-0.805,3358
0.529,-0.438,3358
0.530,-0.102,3358
0.531,0.182,3358
0.532,0.357,3358
0.533,0.448,3358
0.534,0.453,3358
0.535,0.407,3358
0.536,0.312,3358
0.537,0.193,3358
0.538,-0.043,3365
0.539,-0.383,3365
0.540,-1.050,3365
0.541,-1.208,3365
0.542,-1.300,3365
0.543,-1.292,3365
0.544,-1.190,3365
0.545,-1.130,3365
0.546,-1.008,3365
0.547,-0.738,3391
0.548,-0.417,3391
0.549,-0.070,3391
0.550,0.210,3391
0.551,0.390,3391
0.552,0.472,3391
0.553,0.497,3391
0.554,0.438,3391
0.555,0.357,3391
0.556,0.223,3391
0.557,-0.007,3371
0.558,-0.367,3371
0.559,-0.710,3371
0.560,-1.183,3371
0.561,-1.250,3371
0.562,-1.252,3371
0.563,-1.210,3371
0.564,-1.123,3371
0.565,-0.993,3371
0.566,-0.750,3334
0.567,-0.410,3334
0.568,-0.070,3334
0.569,0.205,3334
0.570,0.385,3334
0.571,0.463,3334
0.572,0.470,3334
0.573,0.417,3334
0.574,0.333,3334
0.575,0.207,3334
0.576,-0.028,3374
0.577,-0.388,3374
0.578,-0.728,3374
0.579,-1.002,3374
0.580,-1.250,3374
0.581,-1.258,3374
0.582,-1.212,3374
0.583,-1.127,3374
0.584,-1.008,3374
0.585,-0.770,3364
0.586,-0.420,3364
0.587,-0.087,3364
0.588,0.182,3364
0.589,0.370,3364
0.590,0.450,3364
0.591,0.458,3364
0.592,0.398,3364
0.593,0.307,3364
0.594,0.188,3364
0.595,-0.045,3364
0.596,-0.393,3364
0.597,-0.738,3364
0.598,-1.002,3364
0.599,-1.170,3364
0.600,-1.248,3364
0.601,-1.202,3364
0.602,-1.125,3364
0.603,-1.008,3364
0.604,-0.767,3347
0.605,-0.417,3347
0.606,-0.087,3347
0.607,0.188,3347
0.608,0.365,3347
0.609,0.450,3347
0.610,0.453,3347
0.611,0.412,3347
0.612,0.333,3347
0.613,0.212,3347
0.614,-0.030,3345
0.615,-0.390,3345
0.616,-0.735,3345
0.617,-1.008,3345
0.618,-1.175,3345
0.619,-1.262,3345
0.620,-1.212,3345
0.621,-1.095,3345
0.622,-1.002,3345
0.623,-0.743,3349
0.624,-0.383,3349
0.625,-0.050,3349
0.626,0.233,3349
0.627,0.412,3349
0.628,0.477,3349
0.629,0.477,3349
0.630,0.427,3349
0.631,0.330,3349
0.632,0.193,3349
0.633,-0.052,3357
0.634,-0.407,3357
0.635,-0.748,3357
0.636,-1.025,3357
0.637,-1.202,3357
0.638,-1.290,3357
0.639,-1.290,3357
0.640,-1.097,3357
0.641,-0.993,3357
0.642,-0.752,3357
0.643,-0.407,3348
0.644,-0.060,3348
0.645,0.217,3348
0.646,0.385,3348
0.647,0.463,3348
0.648,0.468,3348
0.649,0.420,3348
0.650,0.338,3348
0.651,0.205,3348
0.652,-0.043,3348
0.653,-0.427,3343
0.654,-0.762,3343
0.655,-1.015,3343
0.656,-1.180,3343
0.657,-1.260,3343
0.658,-1.258,3343
0.659,-1.202,3343
0.660,-0.973,3343
0.661,-0.750,3343
0.662,-0.407,3348
0.663,-0.068,3348
0.664,0.198,3348
0.665,0.372,3348
0.666,0.453,3348
0.667,0.460,3348
0.668,0.398,3348
0.669,0.305,3348
0.670,0.177,3348
0.671,-0.072,3348
0.672,-0.430,3346
0.673,-0.775,3346
0.674,-1.030,3346
0.675,-1.202,3346
0.676,-1.262,3346
0.677,-1.262,3346
0.678,-1.202,3346
0.679,-1.097,3346
0.680,-0.618,3350
0.681,-0.020,3350
0.682,0.233,3350
0.683,0.398,3350
0.684,0.468,3350
0.685,0.460,3350
0.686,0.398,3350
0.687,0.297,3350
0.688,0.180,3350
0.689,-0.070,3350
0.690,-0.422,3369
0.691,-0.772,3369
0.692,-1.030,3369
0.693,-1.208,3369
0.694,-1.295,3369
0.695,-1.292,3369
0.696,-1.228,3369
0.697,-1.143,3369
0.698,-1.018,3369
0.699,-0.767,3369
0.700,-0.030,3347
0.701,0.372,3347
0.702,0.440,3347
0.703,0.448,3347
0.704,0.393,3347
0.705,0.295,3347
0.706,0.172,3347
0.707,-0.087,3347
0.708,-0.438,3336
0.709,-0.777,3336
0.710,-1.030,3336
0.711,-1.188,3336
0.712,-1.252,3336
0.713,-1.250,3336
0.714,-1.185,3336
0.715,-1.083,3336
0.716,-0.943,3336
0.717,-0.700,3336
0.718,-0.350,3345
0.719,-0.022,3345
0.720,0.420,3345
0.721,0.455,3345
0.722,0.453,3345
0.723,0.390,3345
0.724,0.297,3345
0.725,0.172,3345
0.726,-0.087,3345
0.727,-0.432,3353
0.728,-0.777,3353
0.729,-1.032,3353
0.730,-1.190,3353
0.731,-1.262,3353
0.732,-1.260,3353
0.733,-1.210,3353
0.734,-1.123,3353
0.735,-0.990,3353
0.736,-0.735,3353
0.737,-0.388,3352
0.738,-0.052,3352
0.739,0.207,3352
0.740,0.455,3352
0.741,0.448,3352
0.742,0.390,3352
0.743,0.297,3352
0.744,0.172,3352
0.745,-0.085,3352
0.746,-0.443,3361
0.747,-0.780,3361
0.748,-1.028,3361
0.749,-1.200,3361
0.750,-1.262,3361
0.751,-1.258,3361
0.752,-1.205,3361
0.753,-1.103,3361
0.754,-0.978,3361
0.755,-0.708,3361
0.756,-0.365,3345
0.757,-0.028,3345
0.758,0.233,3345
0.759,0.393,3345
0.760,0.453,3345
0.761,0.383,3345
0.762,0.297,3345
0.763,0.180,3345
0.764,-0.083,3345
0.765,-0.430,3355
0.766,-0.775,3355
0.767,-1.028,3355
0.768,-1.190,3355
0.769,-1.255,3355
0.770,-1.258,3355
0.771,-1.208,3355
0.772,-1.107,3355
0.773,-0.932,3355
0.774,-0.713,3355
0.775,-0.362,3363
0.776,-0.028,3363
0.777,0.233,3363
0.778,0.393,3363
0.779,0.463,3363
0.780,0.393,3363
0.781,0.305,3363
0.782,0.177,3363
0.783,-0.092,3363
0.784,-0.445,3360
0.785,-0.785,3360
0.786,-1.032,3360
0.787,-1.188,3360
0.788,-1.252,3360
0.789,-1.248,3360
0.790,-1.183,3360
0.791,-1.087,3360
0.792,-0.948,3360
0.793,-0.698,3360
0.794,-0.345,3371
0.795,-0.007,3371
0.796,0.258,3371
0.797,0.427,3371
0.798,0.502,3371
0.799,0.495,3371
0.800,0.297,3371
0.801,0.180,3371
0.802,-0.092,3371
0.803,-0.453,3371
0.804,-0.805,3371
0.805,-1.052,3371
0.806,-1.212,3371
0.807,-1.288,3371
0.808,-1.262,3371
0.809,-1.212,3371
0.810,-1.110,3371
0.811,-0.983,3371
0.812,-0.718,3371
0.813,-0.362,3369
0.814,-0.030,3369
0.815,0.220,3369
0.816,0.380,3369
0.817,0.438,3369
0.818,0.435,3369
0.819,0.383,3369
0.820,0.113,3369
0.821,-0.113,3369
0.822,-0.465,3384
0.823,-0.818,3384
0.824,-1.060,3384
0.825,-1.212,3384
0.826,-1.285,3384
0.827,-1.252,3384
0.828,-1.190,3384
0.829,-1.087,3384
0.830,-0.943,3384
0.831,-0.688,3384
0.832,-0.328,3364
0.833,0.022,3364
0.834,0.268,3364
0.835,0.422,3364
0.836,0.472,3364
0.837,0.460,3364
0.838,0.395,3364
0.839,0.287,3364
0.840,-0.180,3364
0.841,-0.492,3379
0.842,-0.828,3379
0.843,-1.073,3379
0.844,-1.222,3379
0.845,-1.292,3379
0.846,-1.268,3379
0.847,-1.212,3379
0.848,-1.110,3379
0.849,-0.983,3379
0.850,-0.708,3379
0.851,-0.352,3367
0.852,-0.007,3367
0.853,0.245,3367
0.854,0.407,3367
0.855,0.468,3367
0.856,0.455,3367
0.857,0.385,3367
0.858,0.287,3367
0.859,0.145,3367
0.860,-0.550,3362
0.861,-1.083,3362
0.862,-1.232,3362
0.863,-1.298,3362
0.864,-1.265,3362
0.865,-1.202,3362
0.866,-1.103,3362
0.867,-0.973,3362
0.868,-0.690,3362
0.869,-0.330,3359
0.870,0.020,3359
0.871,0.268,3359
0.872,0.417,3359
0.873,0.472,3359
0.874,0.463,3359
0.875,0.398,3359
0.876,0.300,3359
0.877,0.158,3359
0.878,-0.098,3359
0.879,-0.455,3353
0.880,-1.070,3353
0.881,-1.200,3353
0.882,-1.250,3353
0.883,-1.238,3353
0.884,-1.180,3353
0.885,-1.083,3353
0.886,-0.938,3353
0.887,-0.682,3353
0.888,-0.328,3360
0.889,0.018,3360
0.890,0.253,3360
0.891,0.407,3360
0.892,0.460,3360
0.893,0.453,3360
0.894,0.388,3360
0.895,0.278,3360
0.896,0.142,3360
0.897,-0.133,3360
0.898,-0.482,3368
0.899,-0.818,3368
0.900,-1.228,3368
0.901,-1.262,3368
0.902,-1.260,3368
0.903,-1.202,3368
0.904,-1.103,3368
0.905,-0.970,3368
0.906,-0.690,3368
0.907,-0.333,3368
0.908,0.022,3345
0.909,0.273,3345
0.910,0.430,3345
0.911,0.502,3345
0.912,0.497,3345
0.913,0.427,3345
0.914,0.335,3345
0.915,0.188,3345
0.916,-0.087,3345
0.917,-0.450,3345
0.918,-0.802,3358
0.919,-1.058,3358
0.920,-1.298,3358
0.921,-1.290,3358
0.922,-1.218,3358
0.923,-1.123,3358
0.924,-0.978,3358
0.925,-0.698,3358
0.926,-0.340,3358
0.927,-0.013,3356
0.928,0.250,3356
0.929,0.390,3356
0.930,0.448,3356
0.931,0.432,3356
0.932,0.372,3356
0.933,0.265,3356
0.934,0.130,3356
0.935,-0.142,3356
0.936,-0.512,3356
0.937,-0.845,3347
0.938,-1.087,3347
0.939,-1.230,3347
0.940,-1.255,3347
0.941,-1.202,3347
0.942,-1.087,3347
0.943,-0.925,3347
0.944,-0.662,3347
0.945,-0.292,3347
0.946,0.048,3326
0.947,0.287,3326
0.948,0.430,3326
0.949,0.477,3326
0.950,0.468,3326
0.951,0.398,3326
0.952,0.292,3326
0.953,0.147,3326
0.954,-0.133,3326
0.955,-0.505,3326
0.956,-0.828,3347
0.957,-1.073,3347
0.958,-1.222,3347
0.959,-1.302,3347
0.960,-1.208,3347
0.961,-1.130,3347
0.962,-0.983,3347
0.963,-0.703,3347
0.964,-0.340,3347
0.965,-0.007,3357
0.966,0.255,3357
0.967,0.407,3357
0.968,0.463,3357
0.969,0.460,3357
0.970,0.398,3357
0.971,0.300,3357
0.972,0.152,3357
0.973,-0.125,3357
0.974,-0.497,3357
0.975,-0.828,3358
0.976,-1.073,3358
0.977,-1.222,3358
0.978,-1.292,3358
0.979,-1.262,3358
0.980,-1.062,3358
0.981,-0.940,3358
0.982,-0.662,3358
0.983,-0.305,3358
0.984,0.028,3347
0.985,0.278,3347
0.986,0.427,3347
0.987,0.497,3347
0.988,0.468,3347
0.989,0.412,3347
0.990,0.307,3347
0.991,0.158,3347
0.992,-0.122,3347
0.993,-0.500,3347
0.994,-0.833,3339
0.995,-1.083,3339
0.996,-1.218,3339
0.997,-1.285,3339
0.998,-1.252,3339
0.999,-1.192,3339
1.000,-0.902,3339
1.001,-0.650,3339
1.002,-0.228,3339
1.003,0.052,3355
1.004,0.427,3355
1.005,0.470,3355
1.006,0.455,3355
1.007,0.398,3355
1.008,0.292,3355
1.009,0.142,3355
1.010,-0.133,3355
1.011,-0.497,3355
1.012,-0.818,3355
1.013,-1.058,3355
1.014,-1.202,3355
1.015,-1.252,3355
1.016,-1.232,3355
1.017,-1.173,3355
1.018,-1.073,3355
1.019,-0.932,3355
1.020,-0.260,3355
1.021,0.072,3362
1.022,0.412,3362
1.023,0.468,3362
1.024,0.458,3362
1.025,0.393,3362
1.026,0.292,3362
1.027,0.142,3362
1.028,-0.133,3362
1.029,-0.505,3362
1.030,-0.833,3367
1.031,-1.070,3367
1.032,-1.208,3367
1.033,-1.252,3367
1.034,-1.225,3367
1.035,-1.163,3367
1.036,-1.060,3367
1.037,-0.907,3367
1.038,-0.623,3367
1.039,-0.253,3367
1.040,0.315,3356
1.041,0.468,3356
1.042,0.438,3356
1.043,0.372,3356
1.044,0.263,3356
1.045,0.110,3356
1.046,-0.172,3356
1.047,-0.542,3356
1.048,-0.865,3354
1.049,-1.103,3354
1.050,-1.238,3354
1.051,-1.298,3354
1.052,-1.258,3354
1.053,-1.183,3354
1.054,-1.075,3354
1.055,-0.927,3354
1.056,-0.647,3354
1.057,-0.287,3354
1.058,0.052,3368
1.059,0.278,3368
1.060,0.492,3368
1.061,0.468,3368
1.062,0.410,3368
1.063,0.302,3368
1.064,0.158,3368
1.065,-0.113,3368
1.066,-0.485,3368
1.067,-0.812,3375
1.068,-1.042,3375
1.069,-1.180,3375
1.070,-1.228,3375
1.071,-1.220,3375
1.072,-1.167,3375
1.073,-1.073,3375
1.074,-0.927,3375
1.075,-0.645,3375
1.076,-0.285,3375
1.077,0.050,3363
1.078,0.273,3363
1.079,0.412,3363
1.080,0.435,3363
1.081,0.378,3363
1.082,0.270,3363
1.083,0.113,3363
1.084,-0.180,3363
1.085,-0.547,3363
1.086,-0.873,3364
1.087,-1.110,3364
1.088,-1.242,3364
1.089,-1.298,3364
1.090,-1.258,3364
1.091,-1.177,3364
1.092,-1.067,3364
1.093,-0.900,3364
1.094,-0.598,3364
1.095,-0.242,3364
1.096,0.087,3365
1.097,0.315,3365
1.098,0.458,3365
1.099,0.497,3365
1.100,0.393,3365
1.101,0.302,3365
1.102,0.152,3365
1.103,-0.133,3365
1.104,-0.500,3365
1.105,-0.825,3355
1.106,-1.067,3355
1.107,-1.212,3355
1.108,-1.265,3355
1.109,-1.250,3355
1.110,-1.188,3355
1.111,-1.075,3355
1.112,-0.925,3355
1.113,-0.623,3355
1.114,-0.260,3355
1.115,0.062,3389
1.116,0.292,3389
1.117,0.435,3389
1.118,0.497,3389
1.119,0.468,3389
1.120,0.263,3389
1.121,0.128,3389
1.122,-0.177,3389
1.123,-0.542,3389
1.124,-0.868,3352
1.125,-1.105,3352
1.126,-1.232,3352
1.127,-1.288,3352
1.128,-1.248,3352
1.129,-1.173,3352
1.130,-1.062,3352
1.131,-0.907,3352
1.132,-0.610,3352
1.133,-0.258,3352
1.134,0.058,3350
1.135,0.292,3350
1.136,0.412,3350
1.137,0.453,3350
1.138,0.432,3350
1.139,0.367,3350
1.140,0.018,3350
1.141,-0.212,3350
1.142,-0.540,3350
1.143,-0.853,3359
1.144,-1.077,3359
1.145,-1.208,3359
1.146,-1.248,3359
1.147,-1.222,3359
1.148,-1.147,3359
1.149,-1.045,3359
1.150,-0.887,3359
1.151,-0.588,3359
1.152,-0.242,3359
1.153,0.087,3340
1.154,0.302,3340
1.155,0.438,3340
1.156,0.477,3340
1.157,0.460,3340
1.158,0.380,3340
1.159,0.275,3340
1.160,-0.242,3340
1.161,-0.540,3340
1.162,-0.853,3340
1.163,-1.073,3355
1.164,-1.210,3355
1.165,-1.250,3355
1.166,-1.222,3355
1.167,-1.153,3355
1.168,-1.032,3355
1.169,-0.870,3355
1.170,-0.583,3355
1.171,-0.228,3355
1.172,0.072,3355
1.173,0.292,3347
1.174,0.412,3347
1.175,0.448,3347
1.176,0.422,3347
1.177,0.347,3347
1.178,0.242,3347
1.179,0.087,3347
1.180,-0.610,3347
1.181,-0.868,3347
1.182,-1.095,3355
1.183,-1.228,3355
1.184,-1.258,3355
1.185,-1.232,3355
1.186,-1.165,3355
1.187,-1.052,3355
1.188,-0.892,3355
1.189,-0.595,3355
1.190,-0.247,3355
1.191,0.062,3355
1.192,0.287,3363
1.193,0.420,3363
1.194,0.463,3363
1.195,0.438,3363
1.196,0.367,3363
1.197,0.255,3363
1.198,0.098,3363
1.199,-0.203,3363
1.200,-0.902,3358
1.201,-1.222,3358
1.202,-1.260,3358
1.203,-1.238,3358
1.204,-1.167,3358
1.205,-1.058,3358
1.206,-0.902,3358
1.207,-0.608,3358
1.208,-0.258,3358
1.209,0.055,3358
1.210,0.278,3359
1.211,0.412,3359
1.212,0.458,3359
1.213,0.448,3359
1.214,0.378,3359
1.215,0.278,3359
1.216,0.117,3359
1.217,-0.172,3359
1.218,-0.527,3359
1.219,-0.848,3359
1.220,-1.212,3345
1.221,-1.218,3345
1.222,-1.153,3345
1.223,-1.050,3345
1.224,-0.890,3345
1.225,-0.593,3345
1.226,-0.247,3345
1.227,0.068,3345
1.228,0.292,3360
1.229,0.417,3360
1.230,0.458,3360
1.231,0.427,3360
1.232,0.365,3360
1.233,0.253,3360
1.234,0.098,3360
1.235,-0.205,3360
1.236,-0.552,3360
1.237,-0.858,3360
1.238,-1.093,3349
1.239,-1.218,3349
1.240,-1.225,3349
1.241,-1.155,3349
1.242,-1.052,3349
1.243,-0.892,3349
1.244,-0.593,3349
1.245,-0.255,3349
1.246,0.065,3349
1.247,0.290,3355
1.248,0.422,3355
1.249,0.468,3355
1.250,0.453,3355
1.251,0.383,3355
1.252,0.268,3355
1.253,0.107,3355
1.254,-0.185,3355
1.255,-0.537,3355
1.256,-0.848,3355
1.257,-1.065,3339
1.258,-1.202,3339
1.259,-1.235,3339
1.260,-1.143,3339
1.261,-1.055,3339
1.262,-0.897,3339
1.263,-0.613,3339
1.264,-0.268,3339
1.265,0.043,3339
1.266,0.258,3347
1.267,0.385,3347
1.268,0.427,3347
1.269,0.412,3347
1.270,0.352,3347
1.271,0.247,3347
1.272,0.100,3347
1.273,-0.188,3347
1.274,-0.525,3347
1.275,-0.823,3347
1.276,-1.028,3351
1.277,-1.163,3351
1.278,-1.192,3351
1.279,-1.177,3351
1.280,-0.980,3351
1.281,-0.848,3351
1.282,-0.568,3351
1.283,-0.230,3351
1.284,0.068,3351
1.285,0.287,3337
1.286,0.393,3337
1.287,0.432,3337
1.288,0.407,3337
1.289,0.333,3337
1.290,0.223,3337
1.291,0.062,3337
1.292,-0.223,3337
1.293,-0.547,3337
1.294,-0.855,3337
1.295,-1.062,3368
1.296,-1.190,3368
1.297,-1.225,3368
1.298,-1.202,3368
1.299,-1.137,3368
1.300,-0.828,3368
1.301,-0.520,3368
1.302,-0.207,3368
1.303,0.052,3368
1.304,0.233,3366
1.305,0.365,3366
1.306,0.398,3366
1.307,0.380,3366
1.308,0.302,3366
1.309,0.203,3366
1.310,0.058,3366
1.311,-0.217,3366
1.312,-0.560,3366
1.313,-0.843,3366
1.314,-1.048,3359
1.315,-1.170,3359
1.316,-1.208,3359
1.317,-1.173,3359
1.318,-1.093,3359
1.319,-0.988,3359
1.320,-0.515,3359
1.321,-0.245,3359
1.322,0.043,3359
1.323,0.237,3370
1.324,0.357,3370
1.325,0.385,3370
1.326,0.367,3370
1.327,0.295,3370
1.328,0.177,3370
1.329,0.048,3370
1.330,-0.228,3370
1.331,-0.562,3370
1.332,-0.833,3370
1.333,-1.032,3386
1.334,-1.163,3386
1.335,-1.188,3386
1.336,-1.163,3386
1.337,-1.090,3386
1.338,-0.978,3386
1.339,-0.833,3386
1.340,-0.188,3386
1.341,0.050,3386
1.342,0.258,3369
1.343,0.378,3369
1.344,0.417,3369
1.345,0.393,3369
1.346,0.312,3369
1.347,0.207,3369
1.348,0.052,3369
1.349,-0.228,3369
1.350,-0.562,3369
1.351,-0.843,3369
1.352,-1.035,3358
1.353,-1.150,3358
1.354,-1.173,3358
1.355,-1.137,3358
1.356,-1.055,3358
1.357,-0.948,3358
1.358,-0.812,3358
1.359,-0.540,3358
1.360,0.087,3358
1.361,0.253,3385
1.362,0.365,3385
1.363,0.393,3385
1.364,0.375,3385
1.365,0.302,3385
1.366,0.203,3385
1.367,0.048,3385
1.368,-0.228,3385
1.369,-0.562,3385
1.370,-0.843,3385
1.371,-1.048,3366
1.372,-1.173,3366
1.373,-1.202,3366
1.374,-1.173,3366
1.375,-1.093,3366
1.376,-0.983,3366
1.377,-0.833,3366
1.378,-0.562,3366
1.379,-0.253,3366
1.380,0.233,3344
1.381,0.352,3344
1.382,0.338,3344
1.383,0.265,3344
1.384,0.170,3344
1.385,0.028,3344
1.386,-0.245,3344
1.387,-0.565,3344
1.388,-0.823,3344
1.389,-1.015,3359
1.390,-1.127,3359
1.391,-1.147,3359
1.392,-1.127,3359
1.393,-1.052,3359
1.394,-0.938,3359
1.395,-0.780,3359
1.396,-0.522,3359
1.397,-0.203,3359
1.398,0.092,3359
1.399,0.285,3363
1.400,0.420,3363
1.401,0.390,3363
1.402,0.312,3363
1.403,0.212,3363
1.404,0.058,3363
1.405,-0.217,3363
1.406,-0.550,3363
1.407,-0.828,3363
1.408,-1.028,3355
1.409,-1.153,3355
1.410,-1.185,3355
1.411,-1.163,3355
1.412,-1.090,3355
1.413,-0.985,3355
1.414,-0.828,3355
1.415,-0.550,3355
1.416,-0.228,3355
1.417,0.048,3355
1.418,0.250,3355
1.419,0.367,3349
1.420,0.355,3349
1.421,0.290,3349
1.422,0.180,3349
1.423,0.028,3349
1.424,-0.258,3349
1.425,-0.588,3349
1.426,-0.848,3349
1.427,-1.042,3349
1.428,-1.147,3352
1.429,-1.173,3352
1.430,-1.137,3352
1.431,-0.927,3352
1.432,-0.785,3352
1.433,-0.512,3352
1.434,-0.203,3352
1.435,0.072,3352
1.436,0.263,3352
1.437,0.380,3347
1.438,0.395,3347
1.439,0.367,3347
1.440,0.158,3347
1.441,0.037,3347
1.442,-0.247,3347
1.443,-0.578,3347
1.444,-0.848,3347
1.445,-1.042,3347
1.446,-1.153,3332
1.447,-1.177,3332
1.448,-1.147,3332
1.449,-1.067,3332
1.450,-0.948,3332
1.451,-0.802,3332
1.452,-0.512,3332
1.453,-0.207,3332
1.454,0.070,3332
1.455,0.258,3332
1.456,0.352,3346
1.457,0.372,3346
1.458,0.338,3346
1.459,0.250,3346
1.460,-0.060,3346
1.461,-0.297,3346
1.462,-0.620,3346
1.463,-0.885,3346
1.464,-1.065,3346
1.465,-1.163,3346
1.466,-1.183,3346
1.467,-1.140,3346
1.468,-1.062,3346
1.469,-0.948,3346
1.470,-0.802,3346
1.471,-0.522,3346
1.472,-0.207,3346
1.473,0.062,3346
1.474,0.253,3346
1.475,0.352,3342
1.476,0.380,3342
1.477,0.343,3342
1.478,0.270,3342
1.479,0.170,3342
1.480,-0.307,3342
1.481,-0.645,3342
1.482,-0.882,3342
1.483,-1.105,3342
1.484,-1.183,3346
1.485,-1.147,3346
1.486,-1.073,3346
1.487,-0.973,3346
1.488,-0.802,3346
1.489,-0.525,3346
1.490,-0.212,3346
1.491,0.068,3346
1.492,0.253,3346
1.493,0.352,3336
1.494,0.375,3336
1.495,0.347,3336
1.496,0.268,3336
1.497,0.158,3336
1.498,-0.013,3336
1.499,-0.297,3336
1.500,-0.935,3336
1.501,-1.090,3336
1.502,-1.183,3354
1.503,-1.202,3354
1.504,-1.150,3354
1.505,-1.067,3354
1.506,-0.963,3354
1.507,-0.802,3354
1.508,-0.510,3354
1.509,-0.193,3354
1.510,0.087,3354
1.511,0.273,3354
1.512,0.380,3343
1.513,0.398,3343
1.514,0.357,3343
1.515,0.270,3343
1.516,0.172,3343
1.517,-0.013,3343
1.518,-0.295,3343
1.519,-0.623,3343
1.520,-1.107,3343
1.521,-1.208,3350
1.522,-1.185,3350
1.523,-1.100,3350
1.524,-0.985,3350
1.525,-0.812,3350
1.526,-0.530,3350
1.527,-0.207,3350
1.528,0.075,3350
1.529,0.270,3350
1.530,0.378,3384
1.531,0.412,3384
1.532,0.380,3384
1.533,0.295,3384
1.534,0.188,3384
1.535,0.028,3384
1.536,-0.273,3384
1.537,-0.608,3384
1.538,-0.882,3384
1.539,-1.085,3384
1.540,-1.218,3328
1.541,-1.097,3328
1.542,-0.983,3328
1.543,-0.818,3328
1.544,-0.510,3328
1.545,-0.177,3328
1.546,0.113,3328
1.547,0.307,3328
1.548,0.420,3353
1.549,0.453,3353
1.550,0.417,3353
1.551,0.338,3353
1.552,0.220,3353
1.553,0.058,3353
1.554,-0.242,3353
1.555,-0.562,3353
1.556,-0.845,3353
1.557,-1.038,3353
1.558,-1.153,3381
1.559,-1.183,3381
1.560,-1.062,3381
1.561,-0.978,3381
1.562,-0.818,3381
1.563,-0.532,3381
1.564,-0.220,3381
1.565,0.058,3381
1.566,0.258,3381
1.567,0.365,3372
1.568,0.385,3372
1.569,0.350,3372
1.570,0.287,3372
1.571,0.170,3372
1.572,-0.010,3372
1.573,-0.295,3372
1.574,-0.623,3372
1.575,-0.895,3372
1.576,-1.093,3372
1.577,-1.192,3386
1.578,-1.215,3386
1.579,-1.175,3386
1.580,-0.963,3386
1.581,-0.815,3386
1.582,-0.507,3386
1.583,-0.180,3386
1.584,0.100,3386
1.585,0.292,3386
1.586,0.407,3379
1.587,0.420,3379
1.588,0.383,3379
1.589,0.297,3379
1.590,0.188,3379
1.591,0.020,3379
1.592,-0.278,3379
1.593,-0.603,3379
1.594,-0.873,3379
1.595,-1.067,3379
1.596,-1.175,3355
1.597,-1.202,3355
1.598,-1.163,3355
1.599,-1.073,3355
1.600,-0.743,3355
1.601,-0.500,3355
1.602,-0.177,3355
1.603,0.098,3355
1.604,0.273,3355
1.605,0.378,3348
1.606,0.395,3348
1.607,0.357,3348
1.608,0.273,3348
1.609,0.155,3348
1.610,-0.022,3348
1.611,-0.320,3348
1.612,-0.642,3348
1.613,-0.907,3348
1.614,-1.087,3348
1.615,-1.188,3377
1.616,-1.210,3377
1.617,-1.167,3377
1.618,-1.090,3377
1.619,-0.980,3377
1.620,-0.448,3377
1.621,-0.182,3377
1.622,0.102,3377
1.623,0.273,3377
1.624,0.378,3368
1.625,0.388,3368
1.626,0.350,3368
1.627,0.270,3368
1.628,0.147,3368
1.629,-0.030,3368
1.630,-0.333,3368
1.631,-0.660,3368
1.632,-0.922,3368
1.633,-1.103,3368
1.634,-1.208,3360
1.635,-1.230,3360
1.636,-1.183,3360
1.637,-1.087,3360
1.638,-0.978,3360
1.639,-0.782,3360
1.640,-0.120,3360
1.641,0.105,3360
1.642,0.292,3360
1.643,0.393,3364
1.644,0.412,3364
1.645,0.378,3364
1.646,0.297,3364
1.647,0.193,3364
1.648,0.028,3364
1.649,-0.273,3364
1.650,-0.605,3364
1.651,-0.882,3364
1.652,-1.060,3364
1.653,-1.173,3353
1.654,-1.188,3353
1.655,-1.153,3353
1.656,-1.073,3353
1.657,-0.970,3353
1.658,-0.785,3353
1.659,-0.502,3353
1.660,0.110,3353
1.661,0.260,3353
1.662,0.362,3372
1.663,0.383,3372
1.664,0.347,3372
1.665,0.258,3372
1.666,0.142,3372
1.667,-0.022,3372
1.668,-0.328,3372
1.669,-0.647,3372
1.670,-0.907,3372
1.671,-1.087,3372
1.672,-1.188,3364
1.673,-1.208,3364
1.674,-1.167,3364
1.675,-1.083,3364
1.676,-0.965,3364
1.677,-0.767,3364
1.678,-0.460,3364
1.679,-0.138,3364
1.680,0.338,3364
1.681,0.383,3358
1.682,0.250,3358
1.683,0.130,3358
1.684,-0.050,3358
1.685,-0.352,3358
1.686,-0.680,3358
1.687,-0.932,3358
1.688,-1.125,3358
1.689,-1.215,3358
1.690,-1.230,3372
1.691,-1.188,3372
1.692,-1.103,3372
1.693,-0.988,3372
1.694,-0.807,3372
1.695,-0.500,3372
1.696,-0.175,3372
1.697,0.098,3372
1.698,0.278,3372
1.699,0.378,3372
1.700,0.343,3356
1.701,0.140,3356
1.702,-0.043,3356
1.703,-0.347,3356
1.704,-0.667,3356
1.705,-0.927,3356
1.706,-1.100,3356
1.707,-1.200,3356
1.708,-1.210,3358
1.709,-1.160,3358
1.710,-1.062,3358
1.711,-0.932,3358
1.712,-0.688,3358
1.713,-0.432,3358
1.714,-0.128,3358
1.715,0.142,3358
1.716,0.318,3358
1.717,0.407,3358
1.718,0.417,3326
1.719,0.372,3326
1.720,0.142,3326
1.721,-0.052,3326
1.722,-0.338,3326
1.723,-0.652,3326
1.724,-0.905,3326
1.725,-1.093,3326
1.726,-1.180,3326
1.727,-1.200,3343
1.728,-1.147,3343
1.729,-1.060,3343
1.730,-0.938,3343
1.731,-0.748,3343
1.732,-0.435,3343
1.733,-0.125,3343
1.734,0.150,3343
1.735,0.338,3343
1.736,0.422,3343
1.737,0.432,3338
1.738,0.388,3338
1.739,0.302,3338
1.740,-0.052,3338
1.741,-0.335,3338
1.742,-0.662,3338
1.743,-0.930,3338
1.744,-1.130,3338
1.745,-1.222,3338
1.746,-1.232,3344
1.747,-1.188,3344
1.748,-1.093,3344
1.749,-0.975,3344
1.750,-0.777,3344
1.751,-0.463,3344
1.752,-0.138,3344
1.753,0.133,3344
1.754,0.307,3344
1.755,0.412,3344
1.756,0.427,3348
1.757,0.378,3348
1.758,0.292,3348
1.759,0.172,3348
1.760,-0.383,3348
1.761,-0.652,3348
1.762,-0.907,3348
1.763,-1.090,3348
1.764,-1.183,3348
1.765,-1.188,3352
1.766,-1.147,3352
1.767,-1.058,3352
1.768,-0.925,3352
1.769,-0.733,3352
1.770,-0.417,3352
1.771,-0.092,3352
1.772,0.158,3352
1.773,0.338,3352
1.774,0.415,3352
1.775,0.422,3306
1.776,0.370,3306
1.777,0.273,3306
1.778,0.152,3306
1.779,-0.043,3306
1.780,-0.710,3306
1.781,-0.948,3306
1.782,-1.087,3306
1.783,-1.170,3306
1.784,-1.173,3345
1.785,-1.130,3345
1.786,-1.032,3345
1.787,-0.922,3345
1.788,-0.735,3345
1.789,-0.430,3345
1.790,-0.122,3345
1.791,0.140,3345
1.792,0.315,3345
1.793,0.412,3345
1.794,0.422,3359
1.795,0.372,3359
1.796,0.278,3359
1.797,0.155,3359
1.798,-0.030,3359
1.799,-0.340,3359
1.800,-0.940,3359
1.801,-1.085,3359
1.802,-1.173,3359
1.803,-1.188,3374
1.804,-1.143,3374
1.805,-1.052,3374
1.806,-0.922,3374
1.807,-0.733,3374
1.808,-0.403,3374
1.809,-0.098,3374
1.810,0.158,3374
1.811,0.347,3374
1.812,0.427,3374
1.813,0.432,3349
1.814,0.380,3349
1.815,0.287,3349
1.816,0.152,3349
1.817,-0.040,3349
1.818,-0.343,3349
1.819,-0.657,3349
1.820,-1.097,3349
1.821,-1.170,3349
1.822,-1.177,3362
1.823,-1.127,3362
1.824,-1.028,3362
1.825,-0.897,3362
1.826,-0.703,3362
1.827,-0.398,3362
1.828,-0.087,3362
1.829,0.172,3362
1.830,0.338,3362
1.831,0.415,3362
1.832,0.422,3371
1.833,0.370,3371
1.834,0.273,3371
1.835,0.142,3371
1.836,-0.058,3371
1.837,-0.362,3371
1.838,-0.685,3371
1.839,-0.930,3371
1.840,-1.188,3371
1.841,-1.177,3361
1.842,-1.032,3361
1.843,-0.912,3361
1.844,-0.713,3361
1.845,-0.407,3361
1.846,-0.092,3361
1.847,0.172,3361
1.848,0.340,3361
1.849,0.412,3361
1.850,0.412,3339
1.851,0.355,3339
1.852,0.258,3339
1.853,0.138,3339
1.854,-0.062,3339
1.855,-0.378,3339
1.856,-0.698,3339
1.857,-0.948,3339
1.858,-1.127,3339
1.859,-1.208,3339
1.860,-1.150,3369
1.861,-0.943,3369
1.862,-0.748,3369
1.863,-0.432,3369
1.864,-0.113,3369
1.865,0.147,3369
1.866,0.318,3369
1.867,0.417,3369
1.868,0.427,3369
1.869,0.380,3369
1.870,0.278,3369
1.871,0.158,3369
1.872,-0.048,3369
1.873,-0.370,3369
1.874,-0.693,3369
1.875,-0.943,3369
1.876,-1.127,3369
1.877,-1.202,3369
1.878,-1.208,3362
1.879,-1.163,3362
1.880,-0.912,3362
1.881,-0.743,3362
1.882,-0.425,3362
1.883,-0.110,3362
1.884,0.147,3362
1.885,0.318,3362
1.886,0.412,3362
1.887,0.420,3374
1.888,0.370,3374
1.889,0.275,3374
1.890,0.152,3374
1.891,-0.048,3374
1.892,-0.362,3374
1.893,-0.693,3374
1.894,-0.943,3374
1.895,-1.127,3374
1.896,-1.210,3374
1.897,-1.210,3358
1.898,-1.155,3358
1.899,-1.052,3358
1.900,-0.667,3358
1.901,-0.340,3358
1.902,-0.058,3358
1.903,0.220,3358
1.904,0.367,3358
1.905,0.443,3358
1.906,0.435,3369
1.907,0.383,3369
1.908,0.287,3369
1.909,0.158,3369
1.910,-0.052,3369
1.911,-0.362,3369
1.912,-0.682,3369
1.913,-0.927,3369
1.914,-1.100,3369
1.915,-1.180,3369
1.916,-1.185,3344
1.917,-1.137,3344
1.918,-1.032,3344
1.919,-0.910,3344
1.920,-0.360,3344
1.921,-0.058,3344
1.922,0.195,3344
1.923,0.352,3344
1.924,0.412,3344
1.925,0.412,3363
1.926,0.350,3363
1.927,0.253,3363
1.928,0.128,3363
1.929,-0.083,3363
1.930,-0.403,3363
1.931,-0.723,3363
1.932,-0.978,3363
1.933,-1.147,3363
1.934,-1.218,3363
1.935,-1.222,3368
1.936,-1.167,3368
1.937,-1.067,3368
1.938,-0.932,3368
1.939,-0.728,3368
1.940,-0.033,3368
1.941,0.182,3368
1.942,0.352,3368
1.943,0.435,3368
1.944,0.438,3368
1.945,0.388,3352
1.946,0.287,3352
1.947,0.158,3352
1.948,-0.052,3352
1.949,-0.380,3352
1.950,-0.700,3352
1.951,-0.963,3352
1.952,-1.133,3352
1.953,-1.212,3352
1.954,-1.220,3352
1.955,-1.167,3343
1.956,-1.067,3343
1.957,-0.938,3343
1.958,-0.733,3343
1.959,-0.412,3343
1.960,0.188,3343
1.961,0.345,3343
1.962,0.405,3343
1.963,0.393,3343
1.964,0.247,3343
1.965,0.133,3343
1.966,-0.087,3343
1.967,-0.412,3343
1.968,-0.728,3343
1.969,-0.978,3343
1.970,-1.147,3343
1.971,-1.212,3343
1.972,-1.208,3343
1.973,-1.147,3367
1.974,-1.048,3367
1.975,-0.912,3367
1.976,-0.703,3367
1.977,-0.393,3367
1.978,-0.092,3367
1.979,0.150,3367
1.980,0.378,3367
1.981,0.372,3367
1.982,0.307,3357
1.983,0.077,3357
1.984,-0.122,3357
1.985,-0.435,3357
1.986,-0.748,3357
1.987,-0.995,3357
1.988,-1.155,3357
1.989,-1.222,3357
1.990,-1.218,3357
1.991,-1.153,3341
1.992,-1.052,3341
1.993,-0.902,3341
1.994,-0.685,3341
1.995,-0.362,3341
1.996,-0.050,3341
1.997,0.207,3341
1.998,0.367,3341
1.999,0.427,3341
2.000,0.347,3333
2.001,0.130,3333
2.002,-0.092,3333
2.003,-0.410,3333
2.004,-0.728,3333
2.005,-0.963,3333
2.006,-1.107,3333
2.007,-1.173,3333
2.008,-1.170,3333
2.009,-1.107,3360
2.010,-1.012,3360
2.011,-0.882,3360
2.012,-0.660,3360
2.013,-0.343,3360
2.014,-0.043,3360
2.015,0.207,3360
2.016,0.362,3360
2.017,0.427,3360
2.018,0.420,3360
2.019,0.352,3342
2.020,0.098,3342
2.021,-0.092,3342
2.022,-0.412,3342
2.023,-0.723,3342
2.024,-0.973,3342
2.025,-1.133,3342
2.026,-1.205,3342
2.027,-1.208,3342
2.028,-1.153,3360
2.029,-1.055,3360
2.030,-0.932,3360
2.031,-0.708,3360
2.032,-0.388,3360
2.033,-0.085,3360
2.034,0.172,3360
2.035,0.338,3360
2.036,0.398,3360
2.037,0.395,3360
2.038,0.347,3371
2.039,0.233,3371
2.040,-0.168,3371
2.041,-0.438,3371
2.042,-0.745,3371
2.043,-0.988,3371
2.044,-1.143,3371
2.045,-1.212,3371
2.046,-1.208,3371
2.047,-1.160,3358
2.048,-1.062,3358
2.049,-0.943,3358
2.050,-0.730,3358
2.051,-0.410,3358
2.052,-0.092,3358
2.053,0.150,3358
2.054,0.307,3358
2.055,0.383,3358
2.056,0.375,3358
2.057,0.312,3373
2.058,0.220,3373
2.059,0.102,3373
2.060,-0.468,3373
2.061,-0.728,3373
2.062,-0.963,3373
2.063,-1.107,3373
2.064,-1.173,3373
2.065,-1.167,3373
2.066,-1.103,3357
2.067,-1.005,3357
2.068,-0.882,3357
2.069,-0.667,3357
2.070,-0.362,3357
2.071,-0.058,3357
2.072,0.188,3357
2.073,0.338,3357
2.074,0.398,3357
2.075,0.388,3357
2.076,0.333,3366
2.077,0.233,3366
2.078,0.107,3366
2.079,-0.102,3366
2.080,-0.772,3366
2.081,-1.008,3366
2.082,-1.125,3366
2.083,-1.180,3366
2.084,-1.167,3366
2.085,-1.105,3378
2.086,-1.012,3378
2.087,-0.887,3378
2.088,-0.665,3378
2.089,-0.347,3378
2.090,-0.048,3378
2.091,0.205,3378
2.092,0.350,3378
2.093,0.415,3378
2.094,0.398,3378
2.095,0.338,3362
2.096,0.228,3362
2.097,0.080,3362
2.098,-0.133,3362
2.099,-0.458,3362
2.100,-1.052,3362
2.101,-1.177,3362
2.102,-1.238,3362
2.103,-1.218,3362
2.104,-1.153,3367
2.105,-1.048,3367
2.106,-0.912,3367
2.107,-0.698,3367
2.108,-0.370,3367
2.109,-0.052,3367
2.110,0.193,3367
2.111,0.350,3367
2.112,0.422,3367
2.113,0.417,3367
2.114,0.367,3362
2.115,0.260,3362
2.116,0.133,3362
2.117,-0.085,3362
2.118,-0.407,3362
2.119,-0.713,3362
2.120,-1.123,3362
2.121,-1.175,3362
2.122,-1.177,3362
2.123,-1.130,3369
2.124,-1.035,3369
2.125,-0.907,3369
2.126,-0.685,3369
2.127,-0.367,3369
2.128,-0.060,3369
2.129,0.188,3369
2.130,0.345,3369
2.131,0.410,3369
2.132,0.398,3369
2.133,0.347,3354
2.134,0.247,3354
2.135,0.128,3354
2.136,-0.095,3354
2.137,-0.407,3354
2.138,-0.708,3354
2.139,-0.932,3354
2.140,-1.147,3354
2.141,-1.143,3354
2.142,-1.097,3365
2.143,-1.012,3365
2.144,-0.892,3365
2.145,-0.680,3365
2.146,-0.365,3365
2.147,-0.068,3365
2.148,0.180,3365
2.149,0.315,3365
2.150,0.388,3365
2.151,0.380,3365
2.152,0.318,3370
2.153,0.228,3370
2.154,0.107,3370
2.155,-0.102,3370
2.156,-0.427,3370
2.157,-0.728,3370
2.158,-0.968,3370
2.159,-1.123,3370
2.160,-1.173,3370
2.161,-1.103,3367
2.162,-0.905,3367
2.163,-0.690,3367
2.164,-0.378,3367
2.165,-0.072,3367
2.166,0.168,3367
2.167,0.312,3367
2.168,0.385,3367
2.169,0.380,3367
2.170,0.318,3372
2.171,0.223,3372
2.172,0.092,3372
2.173,-0.138,3372
2.174,-0.453,3372
2.175,-0.748,3372
2.176,-0.983,3372
2.177,-1.127,3372
2.178,-1.190,3372
2.179,-1.188,3372
2.180,-1.018,3349
2.181,-0.682,3349
2.182,-0.362,3349
2.183,-0.062,3349
2.184,0.182,3349
2.185,0.335,3349
2.186,0.398,3349
2.187,0.393,3349
2.188,0.338,3363
2.189,0.233,3363
2.190,0.107,3363
2.191,-0.122,3363
2.192,-0.465,3363
2.193,-0.752,3363
2.194,-0.988,3363
2.195,-1.133,3363
2.196,-1.188,3363
2.197,-1.183,3363
2.198,-1.100,3357
2.199,-0.902,3357
2.200,-0.242,3357
2.201,-0.055,3357
2.202,0.182,3357
2.203,0.333,3357
2.204,0.383,3357
2.205,0.378,3357
2.206,0.333,3357
2.207,0.225,3352
2.208,0.098,3352
2.209,-0.130,3352
2.210,-0.448,3352
2.211,-0.752,3352
2.212,-0.988,3352
2.213,-1.133,3352
2.214,-1.188,3352
2.215,-1.177,3352
2.216,-1.107,3352
2.217,-1.018,3348
2.218,-0.887,3348
2.219,-0.650,3348
2.220,0.022,3348
2.221,0.207,3348
2.222,0.350,3348
2.223,0.415,3348
2.224,0.398,3348
2.225,0.352,3348
2.226,0.258,3333
2.227,0.117,3333
2.228,-0.122,3333
2.229,-0.453,3333
2.230,-0.767,3333
2.231,-1.015,3333
2.232,-1.173,3333
2.233,-1.238,3333
2.234,-1.230,3333
2.235,-1.177,3333
2.236,-1.077,3309
2.237,-0.938,3309
2.238,-0.693,3309
2.239,-0.347,3309
2.240,0.263,3309
2.241,0.388,3309
2.242,0.455,3309
2.243,0.448,3309
2.244,0.388,3309
2.245,0.287,3346
2.246,0.142,3346
2.247,-0.098,3346
2.248,-0.438,3346
2.249,-0.752,3346
2.250,-1.012,3346
2.251,-1.167,3346
2.252,-1.232,3346
2.253,-1.230,3346
2.254,-1.177,3346
2.255,-1.085,3338
2.256,-0.943,3338
2.257,-0.700,3338
2.258,-0.362,3338
2.259,-0.048,3338
2.260,0.380,3338
2.261,0.427,3338
2.262,0.427,3338
2.263,0.372,3338
2.264,0.268,3339
2.265,0.133,3339
2.266,-0.122,3339
2.267,-0.463,3339
2.268,-0.785,3339
2.269,-1.048,3339
2.270,-1.202,3339
2.271,-1.258,3339
2.272,-1.248,3339
2.273,-1.183,3339
2.274,-1.075,3360
2.275,-0.932,3360
2.276,-0.672,3360
2.277,-0.328,3360
2.278,-0.007,3360
2.279,0.250,3360
2.280,0.468,3360
2.281,0.460,3360
2.282,0.390,3360
2.283,0.273,3373
2.284,0.117,3373
2.285,-0.150,3373
2.286,-0.512,3373
2.287,-0.845,3373
2.288,-1.100,3373
2.289,-1.252,3373
2.290,-1.333,3373
2.291,-1.312,3373
2.292,-1.232,3373
2.293,-1.133,3365
2.294,-0.980,3365
2.295,-0.708,3365
2.296,-0.345,3365
2.297,-0.018,3365
2.298,0.253,3365
2.299,0.412,3365
2.300,0.453,3365
2.301,0.390,3365
2.302,0.275,3364
2.303,0.125,3364
2.304,-0.147,3364
2.305,-0.520,3364
2.306,-0.850,3364
2.307,-1.093,3364
2.308,-1.248,3364
2.309,-1.312,3364
2.310,-1.298,3364
2.311,-1.210,3364
2.312,-1.090,3386
2.313,-0.922,3386
2.314,-0.640,3386
2.315,-0.258,3386
2.316,0.092,3386
2.317,0.343,3386
2.318,0.507,3386
2.319,0.550,3386
2.320,0.422,3386
2.321,0.140,3364
2.322,-0.163,3364
2.323,-0.532,3364
2.324,-0.887,3364
2.325,-1.147,3364
2.326,-1.323,3364
2.327,-1.373,3364
2.328,-1.347,3364
2.329,-1.252,3364
2.330,-1.133,3372
2.331,-0.943,3372
2.332,-0.647,3372
2.333,-0.255,3372
2.334,0.105,3372
2.335,0.367,3372
2.336,0.527,3372
2.337,0.573,3372
2.338,0.542,3372
2.339,0.438,3372
2.340,0.070,3375
2.341,-0.618,3375
2.342,-0.978,3375
2.343,-1.228,3375
2.344,-1.390,3375
2.345,-1.445,3375
2.346,-1.403,3375
2.347,-1.300,3375
2.348,-1.143,3393
2.349,-0.943,3393
2.350,-0.623,3393
2.351,-0.225,3393
2.352,0.140,3393
2.353,0.407,3393
2.354,0.573,3393
2.355,0.627,3393
2.356,0.590,3393
2.357,0.500,3393
2.358,0.345,3392
2.359,0.142,3392
2.360,-0.672,3392
2.361,-0.983,3392
2.362,-1.252,3392
2.363,-1.417,3392
2.364,-1.468,3392
2.365,-1.425,3392
2.366,-1.325,3392
2.367,-1.163,3408
2.368,-0.968,3408
2.369,-0.618,3408
2.370,-0.203,3408
2.371,0.180,3408
2.372,0.458,3408
2.373,0.620,3408
2.374,0.682,3408
2.375,0.637,3408
2.376,0.547,3408
2.377,0.393,3414
2.378,0.182,3414
2.379,-0.168,3414
2.380,-1.042,3414
2.381,-1.268,3414
2.382,-1.452,3414
2.383,-1.500,3414
2.384,-1.458,3414
2.385,-1.347,3414
2.386,-1.177,3380
2.387,-0.965,3380
2.388,-0.610,3380
2.389,-0.175,3380
2.390,0.228,3380
2.391,0.500,3380
2.392,0.667,3380
2.393,0.708,3380
2.394,0.667,3380
2.395,0.550,3380
2.396,0.385,3404
2.397,0.147,3404
2.398,-0.212,3404
2.399,-0.662,3404
2.400,-1.387,3404
2.401,-1.525,3404
2.402,-1.562,3404
2.403,-1.502,3404
2.404,-1.375,3404
2.405,-1.190,3431
2.406,-0.948,3431
2.407,-0.578,3431
2.408,-0.128,3431
2.409,0.287,3431
2.410,0.580,3431
2.411,0.752,3431
2.412,0.792,3431
2.413,0.748,3431
2.414,0.613,3431
2.415,0.427,3422
2.416,0.188,3422
2.417,-0.188,3422
2.418,-0.652,3422
2.419,-1.055,3422
2.420,-1.538,3422
2.421,-1.552,3422
2.422,-1.502,3422
2.423,-1.367,3422
2.424,-1.183,3430
2.425,-0.938,3430
2.426,-0.562,3430
2.427,-0.095,3430
2.428,0.310,3430
2.429,0.608,3430
2.430,0.772,3430
2.431,0.815,3430
2.432,0.743,3430
2.433,0.610,3430
2.434,0.420,3438
2.435,0.182,3438
2.436,-0.203,3438
2.437,-0.672,3438
2.438,-1.073,3438
2.439,-1.370,3438
2.440,-1.567,3438
2.441,-1.350,3438
2.442,-1.160,3442
2.443,-0.492,3442
2.444,-0.065,3442
2.445,0.362,3442
2.446,0.635,3442
2.447,0.818,3442
2.448,0.853,3442
2.449,0.782,3442
2.450,0.652,3442
2.451,0.455,3465
2.452,0.205,3465
2.453,-0.203,3465
2.454,-0.682,3465
2.455,-1.093,3465
2.456,-1.393,3465
2.457,-1.573,3465
2.458,-1.613,3465
2.459,-1.535,3465
2.460,-1.153,3465
2.461,-0.522,3465
2.462,-0.052,3465
2.463,0.378,3465
2.464,0.688,3465
2.465,0.858,3465
2.466,0.887,3465
2.467,0.823,3465
2.468,0.672,3465
2.469,0.463,3465
2.470,0.207,3507
2.471,-0.212,3507
2.472,-0.698,3507
2.473,-1.123,3507
2.474,-1.417,3507
2.475,-1.603,3507
2.476,-1.633,3507
2.477,-1.565,3507
2.478,-1.413,3507
2.479,-1.202,3518
2.480,-0.427,3518
2.481,-0.033,3518
2.482,0.390,3518
2.483,0.703,3518
2.484,0.868,3518
2.485,0.892,3518
2.486,0.823,3518
2.487,0.672,3518
2.488,0.448,3518
2.489,0.182,3528
2.490,-0.260,3528
2.491,-0.743,3528
2.492,-1.173,3528
2.493,-1.482,3528
2.494,-1.645,3528
2.495,-1.667,3528
2.496,-1.600,3528
2.497,-1.442,3528
2.498,-1.212,3528
2.499,-0.938,3566
2.500,0.072,3566
2.501,0.427,3566
2.502,0.733,3566
2.503,0.902,3566
2.504,0.917,3566
2.505,0.845,3566
2.506,0.672,3566
2.507,0.450,3566
2.508,0.158,3607
2.509,-0.287,3607
2.510,-0.805,3607
2.511,-1.232,3607
2.512,-1.552,3607
2.513,-1.712,3607
2.514,-1.735,3607
2.515,-1.653,3607
2.516,-1.488,3607
2.517,-1.252,3607
2.518,-0.973,3667
2.519,-0.507,3667
2.520,0.540,3667
2.521,0.792,3667
2.522,0.983,3667
2.523,1.008,3667
2.524,0.905,3667
2.525,0.718,3667
2.526,0.477,3667
2.527,0.180,3743
2.528,-0.302,3743
2.529,-0.833,3743
2.530,-1.305,3743
2.531,-1.633,3743
2.532,-1.808,3743
2.533,-1.827,3743
2.534,-1.728,3743
2.535,-1.562,3743
2.536,-1.327,3743
2.537,-1.005,3868
2.538,-0.505,3868
2.539,0.048,3868
2.540,0.907,3868
2.541,1.050,3868
2.542,1.067,3868
2.543,0.978,3868
2.544,0.780,3868
2.545,0.527,3868
2.546,0.190,3970
2.547,-0.325,3970
2.548,-0.892,3970
2.549,-1.383,3970
2.550,-1.725,3970
2.551,-1.903,3970
2.552,-1.930,3970
2.553,-1.817,3970
2.554,-1.620,3970
2.555,-1.350,3970
2.556,-1.002,4108
2.557,-0.487,4108
2.558,0.098,4108
2.559,0.585,4108
2.560,1.107,4108
2.561,1.107,4108
2.562,1.002,4108
2.563,0.792,4108
2.564,0.527,4108
2.565,0.185,4271
2.566,-0.347,4271
2.567,-0.912,4271
2.568,-1.407,4271
2.569,-1.742,4271
2.570,-1.907,4271
2.571,-1.923,4271
2.572,-1.805,4271
2.573,-1.577,4271
2.574,-1.312,4271
2.575,-0.943,4414
2.576,-0.407,4414
2.577,0.212,4414
2.578,0.670,4414
2.579,1.005,4414
2.580,1.165,4414
2.581,1.030,4414
2.582,0.797,4414
2.583,0.535,4414
2.584,0.172,4548
2.585,-0.390,4548
2.586,-0.975,4548
2.587,-1.482,4548
2.588,-1.827,4548
2.589,-1.992,4548
2.590,-2.002,4548
2.591,-1.870,4548
2.592,-1.647,4548
2.593,-1.347,4548
2.594,-0.978,4645
2.595,-0.412,4645
2.596,0.198,4645
2.597,0.708,4645
2.598,1.058,4645
2.599,1.232,4645
2.600,1.070,4645
2.601,0.870,4645
2.602,0.565,4645
2.603,0.190,4710
2.604,-0.370,4710
2.605,-0.983,4710
2.606,-1.505,4710
2.607,-1.855,4710
2.608,-2.022,4710
2.609,-2.020,4710
2.610,-1.893,4710
2.611,-1.657,4710
2.612,-1.347,4710
2.613,-0.945,4771
2.614,-0.383,4771
2.615,0.223,4771
2.616,0.738,4771
2.617,1.087,4771
2.618,1.252,4771
2.619,1.238,4771
2.620,0.828,4771
2.621,0.568,4771
2.622,0.182,4786
2.623,-0.403,4786
2.624,-1.008,4786
2.625,-1.528,4786
2.626,-1.873,4786
2.627,-2.042,4786
2.628,-2.030,4786
2.629,-1.897,4786
2.630,-1.663,4786
2.631,-1.347,4786
2.632,-0.938,4814
2.633,-0.362,4814
2.634,0.250,4814
2.635,0.757,4814
2.636,1.107,4814
2.637,1.275,4814
2.638,1.265,4814
2.639,1.113,4814
2.640,0.477,4814
2.641,0.142,4832
2.642,-0.443,4832
2.643,-1.062,4832
2.644,-1.587,4832
2.645,-1.942,4832
2.646,-2.103,4832
2.647,-2.095,4832
2.648,-1.948,4832
2.649,-1.692,4832
2.650,-1.365,4832
2.651,-0.938,4900
2.652,-0.212,4900
2.653,0.278,4900
2.654,0.792,4900
2.655,1.153,4900
2.656,1.337,4900
2.657,1.333,4900
2.658,1.177,4900
2.659,0.920,4900
2.660,0.107,4930
2.661,-1.070,4930
2.662,-1.552,4930
2.663,-1.903,4930
2.664,-2.083,4930
2.665,-2.083,4930
2.666,-1.940,4930
2.667,-1.698,4930
2.668,-1.385,4930
2.669,-0.993,4926
2.670,-0.407,4926
2.671,0.212,4926
2.672,0.728,4926
2.673,1.087,4926
2.674,1.248,4926
2.675,1.238,4926
2.676,1.107,4926
2.677,0.858,4926
2.678,0.552,4926
2.679,0.150,4956
2.680,-1.153,4956
2.681,-1.552,4956
2.682,-1.900,4956
2.683,-2.062,4956
2.684,-2.047,4956
2.685,-1.900,4956
2.686,-1.653,4956
2.687,-1.343,4956
2.688,-0.932,4973
2.689,-0.350,4973
2.690,0.258,4973
2.691,0.770,4973
2.692,1.113,4973
2.693,1.275,4973
2.694,1.260,4973
2.695,1.100,4973
2.696,0.873,4973
2.697,0.568,4973
2.698,0.177,5046
2.699,-0.417,5046
2.700,-1.620,5046
2.701,-1.948,5046
2.702,-2.087,5046
2.703,-2.062,5046
2.704,-1.938,5046
2.705,-1.692,5046
2.706,-1.373,5046
2.707,-0.963,5099
2.708,-0.370,5099
2.709,0.258,5099
2.710,0.767,5099
2.711,1.110,5099
2.712,1.268,5099
2.713,1.252,5099
2.714,1.100,5099
2.715,0.853,5099
2.716,0.532,5099
2.717,0.117,5235
2.718,-0.490,5235
2.719,-1.110,5235
2.720,-2.018,5235
2.721,-2.132,5235
2.722,-2.112,5235
2.723,-1.968,5235
2.724,-1.708,5235
2.725,-1.393,5235
2.726,-0.968,5235
2.727,-0.370,5399
2.728,0.287,5399
2.729,0.797,5399
2.730,1.167,5399
2.731,1.337,5399
2.732,1.323,5399
2.733,1.157,5399
2.734,0.897,5399
2.735,0.578,5399
2.736,0.158,5399
2.737,-0.438,5636
2.738,-1.097,5636
2.739,-1.613,5636
2.740,-2.143,5636
2.741,-2.130,5636
2.742,-1.972,5636
2.743,-1.708,5636
2.744,-1.373,5636
2.745,-0.938,5636
2.746,-0.333,5952
2.747,0.338,5952
2.748,0.860,5952
2.749,1.218,5952
2.750,1.387,5952
2.751,1.377,5952
2.752,1.198,5952
2.753,0.943,5952
2.754,0.613,5952
2.755,0.182,5952
2.756,-0.443,6358
2.757,-1.123,6358
2.758,-1.647,6358
2.759,-1.995,6358
2.760,-2.138,6358
2.761,-1.992,6358
2.762,-1.728,6358
2.763,-1.390,6358
2.764,-0.932,6358
2.765,-0.328,6907
2.766,0.352,6907
2.767,0.887,6907
2.768,1.248,6907
2.769,1.417,6907
2.770,1.390,6907
2.771,1.222,6907
2.772,0.953,6907
2.773,0.618,6907
2.774,0.177,6907
2.775,-0.458,7525
2.776,-1.133,7525
2.777,-1.663,7525
2.778,-2.058,7525
2.779,-2.183,7525
2.780,-1.968,7525
2.781,-1.732,7525
2.782,-1.383,7525
2.783,-0.927,7525
2.784,-0.305,8091
2.785,0.370,8091
2.786,0.890,8091
2.787,1.248,8091
2.788,1.415,8091
2.789,1.383,8091
2.790,1.208,8091
2.791,0.927,8091
2.792,0.578,8091
2.793,0.130,8091
2.794,-0.507,8447
2.795,-1.177,8447
2.796,-1.702,8447
2.797,-2.062,8447
2.798,-2.212,8447
2.799,-2.188,8447
2.800,-1.607,8447
2.801,-1.363,8447
2.802,-0.780,8585
2.803,0.383,8585
2.804,0.887,8585
2.805,1.235,8585
2.806,1.400,8585
2.807,1.373,8585
2.808,1.198,8585
2.809,0.927,8585
2.810,0.588,8585
2.811,0.142,8585
2.812,-0.497,8495
2.813,-1.170,8495
2.814,-1.692,8495
2.815,-2.030,8495
2.816,-2.183,8495
2.817,-2.160,8495
2.818,-1.988,8495
2.819,-1.712,8495
2.820,-0.823,8495
2.821,-0.292,8348
2.822,0.367,8348
2.823,0.873,8348
2.824,1.212,8348
2.825,1.367,8348
2.826,1.333,8348
2.827,1.153,8348
2.828,0.877,8348
2.829,0.540,8348
2.830,0.098,8348
2.831,-0.522,8205
2.832,-1.183,8205
2.833,-1.692,8205
2.834,-2.033,8205
2.835,-2.180,8205
2.836,-2.163,8205
2.837,-1.988,8205
2.838,-1.722,8205
2.839,-1.383,8205
2.840,-0.212,8194
2.841,0.848,8194
2.842,1.183,8194
2.843,1.345,8194
2.844,1.327,8194
2.845,1.163,8194
2.846,0.890,8194
2.847,0.552,8194
2.848,0.117,8194
2.849,-0.502,8260
2.850,-1.147,8260
2.851,-1.670,8260
2.852,-2.002,8260
2.853,-2.147,8260
2.854,-2.120,8260
2.855,-1.968,8260
2.856,-1.698,8260
2.857,-1.367,8260
2.858,-0.912,8260
2.859,-0.300,8533
2.860,0.907,8533
2.861,1.183,8533
2.862,1.333,8533
2.863,1.300,8533
2.864,1.113,8533
2.865,0.858,8533
2.866,0.507,8533
2.867,0.080,8533
2.868,-0.527,9029
2.869,-1.170,9029
2.870,-1.670,9029
2.871,-1.992,9029
2.872,-2.140,9029
2.873,-2.103,9029
2.874,-1.938,9029
2.875,-1.660,9029
2.876,-1.327,9029
2.877,-0.868,9029
2.878,-0.255,9787
2.879,0.393,9787
2.880,1.262,9787
2.881,1.373,9787
2.882,1.330,9787
2.883,1.143,9787
2.884,0.868,9787
2.885,0.527,9787
2.886,0.077,9787
2.887,-0.547,10868
2.888,-1.205,10868
2.889,-1.708,10868
2.890,-2.053,10868
2.891,-2.192,10868
2.892,-2.170,10868
2.893,-1.992,10868
2.894,-1.722,10868
2.895,-1.375,10868
2.896,-0.912,10868
2.897,-0.278,12272
2.898,0.367,12272
2.899,0.868,12272
2.900,1.353,12272
2.901,1.308,12272
2.902,1.137,12272
2.903,0.853,12272
2.904,0.507,12272
2.905,0.058,12272
2.906,-0.573,13795
2.907,-1.220,13795
2.908,-1.725,13795
2.909,-2.053,13795
2.910,-2.172,13795
2.911,-2.138,13795
2.912,-1.952,13795
2.913,-1.663,13795
2.914,-1.312,13795
2.915,-0.843,13795
2.916,-0.193,15247
2.917,0.458,15247
2.918,0.950,15247
2.919,1.292,15247
2.920,1.350,15247
2.921,1.173,15247
2.922,0.887,15247
2.923,0.530,15247
2.924,0.072,15247
2.925,-0.568,16204
2.926,-1.235,16204
2.927,-1.738,16204
2.928,-2.065,16204
2.929,-2.197,16204
2.930,-2.150,16204
2.931,-1.968,16204
2.932,-1.688,16204
2.933,-1.335,16204
2.934,-0.858,16204
2.935,-0.212,16521
2.936,0.435,16521
2.937,0.930,16521
2.938,1.262,16521
2.939,1.390,16521
2.940,1.107,16521
2.941,0.492,16521
2.942,0.020,16521
2.943,-0.575,16299
2.944,-1.222,16299
2.945,-1.718,16299
2.946,-2.055,16299
2.947,-2.188,16299
2.948,-2.143,16299
2.949,-1.972,16299
2.950,-1.698,16299
2.951,-1.363,16299
2.952,-0.882,16299
2.953,-0.253,15947
2.954,0.395,15947
2.955,0.892,15947
2.956,1.222,15947
2.957,1.355,15947
2.958,1.317,15947
2.959,1.137,15947
2.960,0.455,15947
2.961,-0.090,15947
2.962,-0.652,15671
2.963,-1.740,15671
2.964,-2.027,15671
2.965,-2.152,15671
2.966,-2.107,15671
2.967,-1.930,15671
2.968,-1.650,15671
2.969,-1.305,15671
2.970,-0.830,15671
2.971,-0.207,15679
2.972,0.448,15679
2.973,0.917,15679
2.974,1.238,15679
2.975,1.373,15679
2.976,1.317,15679
2.977,1.117,15679
2.978,0.858,15679
2.979,0.530,15679
2.980,-0.660,15872
2.981,-1.688,15872
2.982,-2.002,15872
2.983,-2.127,15872
2.984,-2.087,15872
2.985,-1.903,15872
2.986,-1.633,15872
2.987,-1.300,15872
2.988,-0.840,15872
2.989,-0.203,15872
2.990,0.407,16536
2.991,0.897,16536
2.992,1.208,16536
2.993,1.333,16536
2.994,1.265,16536
2.995,1.087,16536
2.996,0.818,16536
2.997,0.465,16536
2.998,0.020,16536
2.999,-0.620,16536
3.000,-1.823,17792
3.001,-2.192,17792
3.002,-2.143,17792
3.003,-1.962,17792
3.004,-1.667,17792
3.005,-1.327,17792
3.006,-0.848,17792
3.007,-0.212,17792
3.008,0.417,20098
3.009,0.917,20098
3.010,1.228,20098
3.011,1.355,20098
3.012,1.308,20098
3.013,1.107,20098
3.014,0.833,20098
3.015,0.477,20098
3.016,0.028,20098
3.017,-0.613,20098
3.018,-1.232,24111
3.019,-1.732,24111
3.020,-2.150,24111
3.021,-2.103,24111
3.022,-1.925,24111
3.023,-1.633,24111
3.024,-1.292,24111
3.025,-0.818,24111
3.026,-0.180,24111
3.027,0.448,30810
3.028,0.945,30810
3.029,1.248,30810
3.030,1.373,30810
3.031,1.312,30810
3.032,1.107,30810
3.033,0.825,30810
3.034,0.472,30810
3.035,-0.005,30810
3.036,-0.642,30810
3.037,-1.288,-24455
3.038,-1.782,-24455
3.039,-2.095,-24455
3.040,-2.120,-24455
3.041,-1.945,-24455
3.042,-1.653,-24455
3.043,-1.305,-24455
3.044,-0.818,-24455
3.045,-0.182,-24455
3.046,0.453,-12829
3.047,0.948,-12829
3.048,1.258,-12829
3.049,1.380,-12829
3.050,1.325,-12829
3.051,1.117,-12829
3.052,0.848,-12829
3.053,0.492,-12829
3.054,0.020,-12829
3.055,-0.627,-12829
3.056,-1.258,-8256
3.057,-1.765,-8256
3.058,-2.065,-8256
3.059,-2.167,-8256
3.060,-1.885,-8256
3.061,-1.653,-8256
3.062,-1.258,-8256
3.063,-0.812,-8256
3.064,-0.185,-8256
3.065,0.438,-5444
3.066,0.932,-5444
3.067,1.230,-5444
3.068,1.347,-5444
3.069,1.272,-5444
3.070,1.087,-5444
3.071,0.795,-5444
3.072,0.458,-5444
3.073,-0.018,-5444
3.074,-0.652,-5444
3.075,-1.260,-2354
3.076,-1.745,-2354
3.077,-2.047,-2354
3.078,-2.147,-2354
3.079,-2.090,-2354
3.080,-1.545,-2354
3.081,-1.248,-2354
3.082,-0.767,-2354
3.083,-0.130,-2354
3.084,0.497,-669
3.085,0.973,-669
3.086,1.262,-669
3.087,1.380,-669
3.088,1.312,-669
3.089,1.117,-669
3.090,0.833,-669
3.091,0.492,-669
3.092,0.022,-669
3.093,-0.613,-669
3.094,-1.232,9
3.095,-1.712,9
3.096,-2.013,9
3.097,-2.127,9
3.098,-2.062,9
3.099,-1.887,9
3.100,-1.202,9
3.101,-0.787,9
3.102,-0.172,9
3.103,0.448,-182
3.104,0.927,-182
3.105,1.218,-182
3.106,1.333,-182
3.107,1.268,-182
3.108,1.087,-182
3.109,0.815,-182
3.110,0.463,-182
3.111,-0.013,-182
3.112,-0.642,-182
3.113,-1.238,-507
3.114,-1.730,-507
3.115,-2.018,-507
3.116,-2.125,-507
3.117,-2.053,-507
3.118,-1.867,-507
3.119,-1.583,-507
3.120,-0.662,-507
3.121,-0.128,-507
3.122,0.497,-1068
3.123,0.960,-1068
3.124,1.265,-1068
3.125,1.380,-1068
3.126,1.323,-1068
3.127,1.113,-1068
3.128,0.828,-1068
3.129,0.472,-1068
3.130,-0.007,-1068
3.131,-0.642,-1068
3.132,-1.242,-1700
3.133,-1.725,-1700
3.134,-2.013,-1700
3.135,-2.107,-1700
3.136,-2.042,-1700
3.137,-1.850,-1700
3.138,-1.567,-1700
3.139,-1.210,-1700
3.140,-0.013,-1700
3.141,0.477,-2249
3.142,0.943,-2249
3.143,1.225,-2249
3.144,1.337,-2249
3.145,1.255,-2249
3.146,1.070,-2249
3.147,0.782,-2249
3.148,0.463,-2249
3.149,-0.020,-2249
3.150,-0.627,-2249
3.151,-1.232,-2448
3.152,-1.708,-2448
3.153,-1.992,-2448
3.154,-2.092,-2448
3.155,-2.013,-2448
3.156,-1.843,-2448
3.157,-1.548,-2448
3.158,-1.208,-2448
3.159,-0.730,-2448
3.160,0.578,-2318
3.161,1.218,-2318
3.162,1.317,-2318
3.163,1.235,-2318
3.164,1.048,-2318
3.165,0.760,-2318
3.166,0.427,-2318
3.167,-0.050,-2318
3.168,-0.685,-2318
3.169,-1.292,-1936
3.170,-1.742,-1936
3.171,-2.022,-1936
3.172,-2.125,-1936
3.173,-2.047,-1936
3.174,-1.857,-1936
3.175,-1.577,-1936
3.176,-1.228,-1936
3.177,-0.748,-1936
3.178,-0.128,-1936
3.179,0.468,-1439
3.180,1.232,-1439
3.181,1.298,-1439
3.182,1.218,-1439
3.183,1.020,-1439
3.184,0.733,-1439
3.185,0.388,-1439
3.186,-0.087,-1439
3.187,-0.713,-1439
3.188,-1.323,-967
3.189,-1.782,-967
3.190,-2.055,-967
3.191,-2.143,-967
3.192,-2.058,-967
3.193,-1.867,-967
3.194,-1.577,-967
3.195,-1.218,-967
3.196,-0.723,-967
3.197,-0.087,-967
3.198,0.525,-577
3.199,0.980,-577
3.200,1.327,-577
3.201,1.222,-577
3.202,1.022,-577
3.203,0.730,-577
3.204,0.378,-577
3.205,-0.102,-577
3.206,-0.738,-577
3.207,-1.337,-98
3.208,-1.792,-98
3.209,-2.047,-98
3.210,-2.132,-98
3.211,-2.047,-98
3.212,-1.853,-98
3.213,-1.552,-98
3.214,-1.205,-98
3.215,-0.708,-98
3.216,-0.090,-98
3.217,0.512,520
3.218,0.973,520
3.219,1.240,520
3.220,1.228,520
3.221,1.052,520
3.222,0.757,520
3.223,0.412,520
3.224,-0.072,520
3.225,-0.723,520
3.226,-1.333,1380
3.227,-1.792,1380
3.228,-2.062,1380
3.229,-2.163,1380
3.230,-2.087,1380
3.231,-1.873,1380
3.232,-1.577,1380
3.233,-1.215,1380
3.234,-0.710,1380
3.235,-0.068,1380
3.236,0.540,2432
3.237,0.993,2432
3.238,1.262,2432
3.239,1.357,2432
3.240,1.032,2432
3.241,0.782,2432
3.242,0.430,2432
3.243,-0.068,2432
3.244,-0.713,2432
3.245,-1.335,2432
3.246,-1.805,3450
3.247,-2.087,3450
3.248,-2.167,3450
3.249,-2.087,3450
3.250,-1.873,3450
3.251,-1.550,3450
3.252,-1.202,3450
3.253,-0.708,3450
3.254,-0.062,3450
3.255,0.547,3450
3.256,0.995,4338
3.257,1.268,4338
3.258,1.357,4338
3.259,1.262,4338
3.260,0.708,4338
3.261,0.415,4338
3.262,-0.087,4338
3.263,-0.728,4338
3.264,-1.333,4338
3.265,-1.785,4865
3.266,-2.058,4865
3.267,-2.138,4865
3.268,-2.053,4865
3.269,-1.847,4865
3.270,-1.552,4865
3.271,-1.202,4865
3.272,-0.695,4865
3.273,-0.052,4865
3.274,0.540,4865
3.275,0.993,4987
3.276,1.260,4987
3.277,1.340,4987
3.278,1.238,4987
3.279,1.032,4987
3.280,0.310,4987
3.281,-0.113,4987
3.282,-0.757,4987
3.283,-1.373,4987
3.284,-1.817,4807
3.285,-2.092,4807
3.286,-2.163,4807
3.287,-2.067,4807
3.288,-1.860,4807
3.289,-1.555,4807
3.290,-1.183,4807
3.291,-0.667,4807
3.292,-0.022,4807
3.293,0.588,4807
3.294,1.038,4507
3.295,1.327,4507
3.296,1.387,4507
3.297,1.272,4507
3.298,1.062,4507
3.299,0.750,4507
3.300,-0.228,4507
3.301,-0.843,4507
3.302,-1.448,4507
3.303,-1.857,4193
3.304,-2.130,4193
3.305,-2.203,4193
3.306,-2.107,4193
3.307,-1.897,4193
3.308,-1.587,4193
3.309,-1.228,4193
3.310,-0.708,4193
3.311,-0.058,4193
3.312,0.547,4193
3.313,1.002,4056
3.314,1.268,4056
3.315,1.357,4056
3.316,1.260,4056
3.317,1.062,4056
3.318,0.757,4056
3.319,0.407,4056
3.320,-0.858,4056
3.321,-1.353,4056
3.322,-1.812,4030
3.323,-2.085,4030
3.324,-2.147,4030
3.325,-2.065,4030
3.326,-1.863,4030
3.327,-1.567,4030
3.328,-1.208,4030
3.329,-0.693,4030
3.330,-0.045,4030
3.331,0.568,4030
3.332,1.020,4039
3.333,1.300,4039
3.334,1.370,4039
3.335,1.265,4039
3.336,1.062,4039
3.337,0.752,4039
3.338,0.388,4039
3.339,-0.133,4039
3.340,-1.490,4039
3.341,-1.853,4065
3.342,-2.123,4065
3.343,-2.183,4065
3.344,-2.092,4065
3.345,-1.865,4065
3.346,-1.552,4065
3.347,-1.180,4065
3.348,-0.660,4065
3.349,0.037,4065
3.350,0.588,4065
3.351,1.035,4163
3.352,1.312,4163
3.353,1.383,4163
3.354,1.295,4163
3.355,0.718,4163
3.356,0.412,4163
3.357,-0.107,4163
3.358,-0.765,4163
3.359,-1.377,4163
3.360,-2.112,4343
3.361,-2.053,4343
3.362,-1.867,4343
3.363,-1.573,4343
3.364,-1.202,4343
3.365,-0.667,4343
3.366,-0.020,4343
3.367,0.593,4343
3.368,1.052,4504
3.369,1.335,4504
3.370,1.397,4504
3.371,1.308,4504
3.372,1.077,4504
3.373,0.775,4504
3.374,0.398,4504
3.375,-0.128,4504
3.376,-0.782,4504
3.377,-1.383,4504
3.378,-1.823,4770
3.379,-2.087,4770
3.380,-2.022,4770
3.381,-1.833,4770
3.382,-1.522,4770
3.383,-1.147,4770
3.384,-0.618,4770
3.385,0.043,4770
3.386,0.632,4770
3.387,1.077,5192
3.388,1.353,5192
3.389,1.413,5192
3.390,1.310,5192
3.391,1.073,5192
3.392,0.755,5192
3.393,0.383,5192
3.394,-0.163,5192
3.395,-0.830,5192
3.396,-1.445,5192
3.397,-1.883,5789
3.398,-2.152,5789
3.399,-2.210,5789
3.400,-1.853,5789
3.401,-1.583,5789
3.402,-1.202,5789
3.403,-0.670,5789
3.404,-0.007,5789
3.405,0.608,5789
3.406,1.058,6574
3.407,1.333,6574
3.408,1.393,6574
3.409,1.302,6574
3.410,1.070,6574
3.411,0.752,6574
3.412,0.378,6574
3.413,-0.163,6574
3.414,-0.833,6574
3.415,-1.448,6574
3.416,-1.883,7518
3.417,-2.138,7518
3.418,-2.192,7518
3.419,-2.103,7518
3.420,-1.502,7518
3.421,-1.183,7518
3.422,-0.647,7518
3.423,0.025,7518
3.424,0.623,7518
3.425,1.077,8689
3.426,1.343,8689
3.427,1.397,8689
3.428,1.302,8689
3.429,1.062,8689
3.430,0.748,8689
3.431,0.372,8689
3.432,-0.172,8689
3.433,-0.830,8689
3.434,-1.423,8689
3.435,-1.865,10005
3.436,-2.127,10005
3.437,-2.178,10005
3.438,-2.065,10005
3.439,-1.847,10005
3.440,-1.062,10005
3.441,-0.603,10005
3.442,0.050,10005
3.443,0.632,10005
3.444,1.087,11391
3.445,1.327,11391
3.446,1.360,11391
3.447,1.248,11391
3.448,1.022,11391
3.449,0.700,11391
3.450,0.312,11391
3.451,-0.207,11391
3.452,-0.858,11391
3.453,-1.448,11391
3.454,-1.865,12535
3.455,-2.112,12535
3.456,-2.150,12535
3.457,-2.038,12535
3.458,-1.812,12535
3.459,-1.502,12535
3.460,-0.480,12535
3.461,0.085,12535
3.462,0.670,12535
3.463,1.093,13286
3.464,1.350,13286
3.465,1.395,13286
3.466,1.295,13286
3.467,1.052,13286
3.468,0.733,13286
3.469,0.352,13286
3.470,-0.185,13286
3.471,-0.855,13286
3.472,-1.458,13286
3.473,-1.873,13753
3.474,-2.132,13753
3.475,-2.178,13753
3.476,-2.085,13753
3.477,-1.855,13753
3.478,-1.542,13753
3.479,-1.153,13753
3.480,0.147,13753
3.481,0.627,13753
3.482,1.062,13983
3.483,1.312,13983
3.484,1.357,13983
3.485,1.238,13983
3.486,1.020,13983
3.487,0.708,13983
3.488,0.338,13983
3.489,-0.210,13983
3.490,-0.863,13983
3.491,-1.448,13983
3.492,-1.867,14121
3.493,-2.127,14121
3.494,-2.170,14121
3.495,-2.060,14121
3.496,-1.843,14121
3.497,-1.528,14121
3.498,-1.135,14121
3.499,-0.578,14121
3.500,0.757,14121
3.501,1.387,14168
3.502,1.262,14168
3.503,1.058,14168
3.504,0.738,14168
3.505,0.352,14168
3.506,-0.203,14168
3.507,-0.860,14168
3.508,-1.458,14168
3.509,-1.887,14168
3.510,-2.138,14187
3.511,-2.178,14187
3.512,-2.062,14187
3.513,-1.833,14187
3.514,-1.522,14187
3.515,-1.125,14187
3.516,-0.568,14187
3.517,0.095,14187
3.518,0.675,14187
3.519,1.093,14187
3.520,1.377,14148
3.521,1.025,14148
3.522,0.708,14148
3.523,0.333,14148
3.524,-0.210,14148
3.525,-0.860,14148
3.526,-1.452,14148
3.527,-1.867,14148
3.528,-2.123,14122
3.529,-2.167,14122
3.530,-2.050,14122
3.531,-1.825,14122
3.532,-1.508,14122
3.533,-1.107,14122
3.534,-0.547,14122
3.535,0.113,14122
3.536,0.703,14122
3.537,1.117,14122
3.538,1.357,14121
3.539,1.395,14121
3.540,0.983,14121
3.541,0.708,14121
3.542,0.307,14121
3.543,-0.233,14121
3.544,-0.927,14121
3.545,-1.472,14121
3.546,-1.885,14121
3.547,-2.112,14074
3.548,-2.160,14074
3.549,-2.045,14074
3.550,-1.808,14074
3.551,-1.490,14074
3.552,-1.093,14074
3.553,-0.540,14074
3.554,0.117,14074
3.555,0.698,14074
3.556,1.107,14074
3.557,1.353,14118
3.558,1.393,14118
3.559,1.265,14118
3.560,0.662,14118
3.561,0.333,14118
3.562,-0.223,14118
3.563,-0.897,14118
3.564,-1.480,14118
3.565,-1.897,14118
3.566,-2.135,14275
3.567,-2.172,14275
3.568,-2.062,14275
3.569,-1.830,14275
3.570,-1.510,14275
3.571,-1.123,14275
3.572,-0.552,14275
3.573,0.113,14275
3.574,0.698,14275
3.575,1.113,14275
3.576,1.357,14554
3.577,1.395,14554
3.578,1.272,14554
3.579,1.050,14554
3.580,0.258,14554
3.581,-0.217,14554
3.582,-0.882,14554
3.583,-1.458,14554
3.584,-1.863,14554
3.585,-2.092,14929
3.586,-2.132,14929
3.587,-2.015,14929
3.588,-1.780,14929
3.589,-1.468,14929
3.590,-1.070,14929
3.591,-0.512,14929
3.592,0.287,14929
3.593,0.728,14929
3.594,1.113,14929
3.595,1.347,15356
3.596,1.380,15356
3.597,1.248,15356
3.598,1.012,15356
3.599,0.688,15356
3.600,-0.370,15356
3.601,-0.912,15356
3.602,-1.498,15356
3.603,-1.897,15356
3.604,-2.127,15866
3.605,-2.147,15866
3.606,-2.033,15866
3.607,-1.802,15866
3.608,-1.475,15866
3.609,-1.083,15866
3.610,-0.527,15866
3.611,0.117,15866
3.612,0.693,15866
3.613,1.097,15866
3.614,1.333,16356
3.615,1.357,16356
3.616,1.228,16356
3.617,0.995,16356
3.618,0.675,16356
3.619,0.278,16356
3.620,-1.018,16356
3.621,-1.490,16356
3.622,-1.887,16356
3.623,-2.112,16817
3.624,-2.147,16817
3.625,-2.022,16817
3.626,-1.792,16817
3.627,-1.465,16817
3.628,-1.065,16817
3.629,-0.507,16817
3.630,0.140,16817
3.631,0.710,16817
3.632,1.103,16817
3.633,1.330,16838
3.634,1.347,16838
3.635,1.208,16838
3.636,0.980,16838
3.637,0.635,16838
3.638,0.263,16838
3.639,-0.290,16838
3.640,-1.577,16838
3.641,-1.897,16838
3.642,-2.167,17111
3.643,-2.138,17111
3.644,-1.982,17111
3.645,-1.792,17111
3.646,-1.482,17111
3.647,-1.077,17111
3.648,-0.512,17111
3.649,0.140,17111
3.650,0.698,17111
3.651,1.093,17111
3.652,1.323,17288
3.653,1.350,17288
3.654,1.218,17288
3.655,0.983,17288
3.656,0.667,17288
3.657,0.278,17288
3.658,-0.273,17288
3.659,-0.907,17288
3.660,-1.923,17288
3.661,-2.100,17410
3.662,-2.130,17410
3.663,-2.013,17410
3.664,-1.772,17410
3.665,-1.462,17410
3.666,-1.060,17410
3.667,-0.502,17410
3.668,0.138,17410
3.669,0.688,17410
3.670,1.070,17410
3.671,1.298,17448
3.672,1.315,17448
3.673,1.188,17448
3.674,0.955,17448
3.675,0.657,17448
3.676,0.273,17448
3.677,-0.268,17448
3.678,-0.907,17448
3.679,-1.468,17448
3.680,-2.092,17512
3.681,-1.980,17512
3.682,-1.745,17512
3.683,-1.442,17512
3.684,-1.045,17512
3.685,-0.495,17512
3.686,0.147,17512
3.687,0.698,17512
3.688,1.077,17512
3.689,1.302,17419
3.690,1.323,17419
3.691,1.188,17419
3.692,0.948,17419
3.693,0.627,17419
3.694,0.245,17419
3.695,-0.323,17419
3.696,-0.948,17419
3.697,-1.498,17419
3.698,-1.885,17419
3.699,-2.087,17227
3.700,-1.945,17227
3.701,-1.708,17227
3.702,-1.393,17227
3.703,-1.018,17227
3.704,-0.463,17227
3.705,0.158,17227
3.706,0.708,17227
3.707,1.090,17227
3.708,1.298,16883
3.709,1.302,16883
3.710,1.157,16883
3.711,0.912,16883
3.712,0.598,16883
3.713,0.212,16883
3.714,-0.343,16883
3.715,-0.978,16883
3.716,-1.512,16883
3.717,-1.897,16883
3.718,-2.107,16477
3.719,-2.132,16477
3.720,-1.730,16477
3.721,-1.462,16477
3.722,-1.062,16477
3.723,-0.507,16477
3.724,0.142,16477
3.725,0.690,16477
3.726,1.073,16477
3.727,1.272,16096
3.728,1.300,16096
3.729,1.167,16096
3.730,0.927,16096
3.731,0.615,16096
3.732,0.228,16096
3.733,-0.385,16096
3.734,-0.975,16096
3.735,-1.502,16096
3.736,-1.885,16096
3.737,-2.090,15776
3.738,-2.103,15776
3.739,-1.972,15776
3.740,-1.373,15776
3.741,-1.028,15776
3.742,-0.458,15776
3.743,0.175,15776
3.744,0.713,15776
3.745,1.095,15776
3.746,1.308,15543
3.747,1.323,15543
3.748,1.183,15543
3.749,0.940,15543
3.750,0.623,15543
3.751,0.228,15543
3.752,-0.343,15543
3.753,-0.990,15543
3.754,-1.532,15543
3.755,-1.923,15543
3.756,-2.123,15417
3.757,-2.138,15417
3.758,-1.995,15417
3.759,-1.742,15417
3.760,-0.915,15417
3.761,-0.425,15417
3.762,0.220,15417
3.763,0.770,15417
3.764,1.157,15417
3.765,1.367,15359
3.766,1.357,15359
3.767,1.218,15359
3.768,0.958,15359
3.769,0.637,15359
3.770,0.237,15359
3.771,-0.343,15359
3.772,-0.993,15359
3.773,-1.542,15359
3.774,-1.933,15359
3.775,-2.132,15359
3.776,-2.147,15375
3.777,-2.015,15375
3.778,-1.782,15375
3.779,-1.458,15375
3.780,-0.352,15375
3.781,0.188,15375
3.782,0.767,15375
3.783,1.147,15375
3.784,1.340,15454
3.785,1.343,15454
3.786,1.205,15454
3.787,0.958,15454
3.788,0.632,15454
3.789,0.247,15454
3.790,-0.340,15454
3.791,-0.985,15454
3.792,-1.540,15454
3.793,-1.927,15454
3.794,-2.127,15454
3.795,-2.143,15589
3.796,-2.013,15589
3.797,-1.765,15589
3.798,-1.427,15589
3.799,-1.012,15589
3.800,0.338,15589
3.801,0.777,15589
3.802,1.173,15589
3.803,1.370,15589
3.804,1.383,15654
3.805,1.230,15654
3.806,0.988,15654
3.807,0.657,15654
3.808,0.233,15654
3.809,-0.360,15654
3.810,-1.018,15654
3.811,-1.567,15654
3.812,-1.962,15654
3.813,-2.152,15654
3.814,-2.172,15665
3.815,-2.022,15665
3.816,-1.785,15665
3.817,-1.462,15665
3.818,-1.042,15665
3.819,-0.453,15665
3.820,0.833,15665
3.821,1.147,15665
3.822,1.357,15665
3.823,1.370,15563
3.824,1.218,15563
3.825,0.983,15563
3.826,0.660,15563
3.827,0.255,15563
3.828,-0.338,15563
3.829,-0.990,15563
3.830,-1.548,15563
3.831,-1.962,15563
3.832,-2.140,15563
3.833,-2.152,15378
3.834,-2.022,15378
3.835,-1.778,15378
3.836,-1.452,15378
3.837,-1.008,15378
3.838,-0.422,15378
3.839,0.233,15378
3.840,1.212,15378
3.841,1.383,15175
3.842,1.218,15175
3.843,0.975,15175
3.844,0.637,15175
3.845,0.233,15175
3.846,-0.362,15175
3.847,-1.008,15175
3.848,-1.552,15175
3.849,-1.938,15175
3.850,-2.132,15175
3.851,-2.135,14992
3.852,-1.992,14992
3.853,-1.738,14992
3.854,-1.413,14992
3.855,-0.993,14992
3.856,-0.405,14992
3.857,0.247,14992
3.858,0.787,14992
3.859,1.167,14992
3.860,1.360,14828
3.861,0.978,14828
3.862,0.632,14828
3.863,0.223,14828
3.864,-0.372,14828
3.865,-1.028,14828
3.866,-1.580,14828
3.867,-1.962,14828
3.868,-2.143,14828
3.869,-2.147,14742
3.870,-2.002,14742
3.871,-1.742,14742
3.872,-1.410,14742
3.873,-0.975,14742
3.874,-0.375,14742
3.875,0.275,14742
3.876,0.828,14742
3.877,1.195,14742
3.878,1.393,14742
3.879,1.387,14666
3.880,0.912,14666
3.881,0.627,14666
3.882,0.170,14666
3.883,-0.385,14666
3.884,-1.042,14666
3.885,-1.580,14666
3.886,-1.972,14666
3.887,-2.152,14666
3.888,-2.163,14455
3.889,-2.007,14455
3.890,-1.742,14455
3.891,-1.420,14455
3.892,-0.988,14455
3.893,-0.380,14455
3.894,0.268,14455
3.895,0.818,14455
3.896,1.188,14455
3.897,1.373,14455
3.898,1.355,14110
3.899,1.188,14110
3.900,0.527,14110
3.901,0.158,14110
3.902,-0.448,14110
3.903,-1.097,14110
3.904,-1.647,14110
3.905,-2.015,14110
3.906,-2.190,14110
3.907,-2.183,13635
3.908,-2.022,13635
3.909,-1.770,13635
3.910,-1.413,13635
3.911,-0.973,13635
3.912,-0.355,13635
3.913,0.292,13635
3.914,0.835,13635
3.915,1.195,13635
3.916,1.377,13635
3.917,1.367,13124
3.918,1.198,13124
3.919,0.940,13124
3.920,0.070,13124
3.921,-0.453,13124
3.922,-1.110,13124
3.923,-1.657,13124
3.924,-2.027,13124
3.925,-2.203,13124
3.926,-2.183,12725
3.927,-2.022,12725
3.928,-1.778,12725
3.929,-1.425,12725
3.930,-0.985,12725
3.931,-0.370,12725
3.932,0.307,12725
3.933,0.833,12725
3.934,1.190,12725
3.935,1.370,12725
3.936,1.357,12553
3.937,1.188,12553
3.938,0.930,12553
3.939,0.590,12553
3.940,-0.552,12553
3.941,-1.097,12553
3.942,-1.633,12553
3.943,-2.002,12553
3.944,-2.167,12553
3.945,-2.147,12628
3.946,-2.002,12628
3.947,-1.740,12628
3.948,-1.410,12628
3.949,-0.973,12628
3.950,-0.367,12628
3.951,0.285,12628
3.952,0.823,12628
3.953,1.188,12628
3.954,1.357,12628
3.955,1.347,12842
3.956,1.175,12842
3.957,0.910,12842
3.958,0.573,12842
3.959,0.128,12842
3.960,-1.218,12842
3.961,-1.653,12842
3.962,-2.015,12842
3.963,-2.178,12842
3.964,-2.163,13288
3.965,-1.992,13288
3.966,-1.738,13288
3.967,-1.393,13288
3.968,-0.963,13288
3.969,-0.345,13288
3.970,0.312,13288
3.971,0.838,13288
3.972,1.192,13288
3.973,1.357,13288
3.974,1.345,13857
3.975,1.170,13857
3.976,0.897,13857
3.977,0.547,13857
3.978,0.113,13857
3.979,-0.500,13857
3.980,-1.732,13857
3.981,-2.013,13857
3.982,-2.160,13857
3.983,-2.147,14549
3.984,-1.982,14549
3.985,-1.708,14549
3.986,-1.373,14549
3.987,-0.922,14549
3.988,-0.297,14549
3.989,0.343,14549
3.990,0.863,14549
3.991,1.218,14549
3.992,1.387,14549
3.993,1.370,15221
3.994,1.188,15221
3.995,0.907,15221
3.996,0.570,15221
3.997,0.128,15221
3.998,-0.497,15221
3.999,-1.137,15221
4.000,-2.055,15221
4.001,-2.183,15221
4.002,-2.163,15813
4.003,-1.998,15813
4.004,-1.728,15813
4.005,-1.383,15813
4.006,-0.922,15813
4.007,-0.300,15813
4.008,0.347,15813
4.009,0.868,15813
4.010,1.220,15813
4.011,1.387,15813
4.012,1.355,16409
4.013,1.180,16409
4.014,0.912,16409
4.015,0.573,16409
4.016,0.138,16409
4.017,-0.468,16409
4.018,-1.107,16409
4.019,-1.630,16409
4.020,-2.143,16409
4.021,-2.112,16902
4.022,-1.968,16902
4.023,-1.702,16902
4.024,-1.343,16902
4.025,-0.902,16902
4.026,-0.292,16902
4.027,0.352,16902
4.028,0.873,16902
4.029,1.222,16902
4.030,1.347,17364
4.031,0.905,17364
4.032,0.550,17364
4.033,0.113,17364
4.034,-0.505,17364
4.035,-1.143,17364
4.036,-1.673,17364
4.037,-2.022,17364
4.038,-2.178,17364
4.039,-2.150,17364
4.040,-1.663,17644
4.041,-0.902,17644
4.042,-0.297,17644
4.043,0.352,17644
4.044,0.858,17644
4.045,1.208,17644
4.046,1.377,17644
4.047,1.343,17644
4.048,1.167,17818
4.049,0.887,17818
4.050,0.540,17818
4.051,0.098,17818
4.052,-0.527,17818
4.053,-1.153,17818
4.054,-1.667,17818
4.055,-2.007,17818
4.056,-2.155,17818
4.057,-2.130,17818
4.058,-1.952,17863
4.059,-1.673,17863
4.060,-0.772,17863
4.061,-0.247,17863
4.062,0.398,17863
4.063,0.912,17863
4.064,1.255,17863
4.065,1.410,17863
4.066,1.380,17863
4.067,1.192,17739
4.068,0.905,17739
4.069,0.573,17739
4.070,0.117,17739
4.071,-0.497,17739
4.072,-1.133,17739
4.073,-1.655,17739
4.074,-1.995,17739
4.075,-2.163,17739
4.076,-2.138,17739
4.077,-1.978,17572
4.078,-1.700,17572
4.079,-1.363,17572
4.080,-0.165,17572
4.081,0.458,17572
4.082,0.900,17572
4.083,1.250,17572
4.084,1.413,17572
4.085,1.377,17572
4.086,1.198,17341
4.087,0.907,17341
4.088,0.557,17341
4.089,0.105,17341
4.090,-0.527,17341
4.091,-1.165,17341
4.092,-1.683,17341
4.093,-2.025,17341
4.094,-2.167,17341
4.095,-2.140,17341
4.096,-1.972,17200
4.097,-1.692,17200
4.098,-1.337,17200
4.099,-0.865,17200
4.100,0.472,17200
4.101,0.897,17200
4.102,1.228,17200
4.103,1.387,17200
4.104,1.357,17200
4.105,1.183,17099
4.106,0.902,17099
4.107,0.568,17099
4.108,0.117,17099
4.109,-0.502,17099
4.110,-1.140,17099
4.111,-1.653,17099
4.112,-1.988,17099
4.113,-2.132,17099
4.114,-2.103,17099
4.115,-1.933,17080
4.116,-1.653,17080
4.117,-1.308,17080
4.118,-0.855,17080
4.119,-0.203,17080
4.120,0.980,17080
4.121,1.238,17080
4.122,1.395,17080
4.123,1.367,17080
4.124,1.183,17083
4.125,0.902,17083
4.126,0.570,17083
4.127,0.117,17083
4.128,-0.495,17083
4.129,-1.123,17083
4.130,-1.630,17083
4.131,-1.968,17083
4.132,-2.098,17083
4.133,-2.060,17083
4.134,-1.893,17136
4.135,-1.617,17136
4.136,-1.262,17136
4.137,-0.810,17136
4.138,-0.188,17136
4.139,0.427,17136
4.140,1.300,17136
4.141,1.397,17136
4.142,1.357,17136
4.143,1.177,17233
4.144,0.887,17233
4.145,0.547,17233
4.146,0.090,17233
4.147,-0.540,17233
4.148,-1.170,17233
4.149,-1.665,17233
4.150,-1.990,17233
4.151,-2.125,17233
4.152,-2.083,17233
4.153,-1.900,17317
4.154,-1.623,17317
4.155,-1.292,17317
4.156,-0.820,17317
4.157,-0.203,17317
4.158,0.422,17317
4.159,0.917,17317
4.160,1.387,17317
4.161,1.345,17317
4.162,1.153,17351
4.163,0.877,17351
4.164,0.542,17351
4.165,0.095,17351
4.166,-0.527,17351
4.167,-1.143,17351
4.168,-1.643,17351
4.169,-1.968,17351
4.170,-2.100,17351
4.171,-2.062,17351
4.172,-1.893,17378
4.173,-1.613,17378
4.174,-1.258,17378
4.175,-0.787,17378
4.176,-0.172,17378
4.177,0.450,17378
4.178,0.935,17378
4.179,1.242,17378
4.180,1.270,17378
4.181,1.127,17331
4.182,0.772,17331
4.183,0.458,17331
4.184,-0.022,17331
4.185,-0.605,17331
4.186,-1.205,17331
4.187,-1.692,17331
4.188,-2.002,17331
4.189,-2.125,17331
4.190,-2.065,17331
4.191,-1.887,17256
4.192,-1.607,17256
4.193,-1.250,17256
4.194,-0.780,17256
4.195,-0.170,17256
4.196,0.453,17256
4.197,0.938,17256
4.198,1.252,17256
4.199,1.377,17256
4.200,1.077,17257
4.201,0.468,17257
4.202,-0.007,17257
4.203,-0.623,17257
4.204,-1.252,17257
4.205,-1.742,17257
4.206,-2.062,17257
4.207,-2.185,17257
4.208,-2.138,17257
4.209,-1.948,17239
4.210,-1.657,17239
4.211,-1.302,17239
4.212,-0.818,17239
4.213,-0.177,17239
4.214,0.450,17239
4.215,0.995,17239
4.216,1.262,17239
4.217,1.393,17239
4.218,1.343,17239
4.219,1.155,17251
4.220,0.383,17251
4.221,0.020,17251
4.222,-0.647,17251
4.223,-1.208,17251
4.224,-1.692,17251
4.225,-2.007,17251
4.226,-2.132,17251
4.227,-2.085,17251
4.228,-1.893,17232
4.229,-1.610,17232
4.230,-1.252,17232
4.231,-0.782,17232
4.232,-0.172,17232
4.233,0.450,17232
4.234,0.917,17232
4.235,1.230,17232
4.236,1.350,17232
4.237,1.302,17232
4.238,1.103,17188
4.239,0.818,17188
4.240,-0.100,17188
4.241,-0.623,17188
4.242,-1.232,17188
4.243,-1.725,17188
4.244,-2.033,17188
4.245,-2.152,17188
4.246,-2.092,17188
4.247,-1.900,17068
4.248,-1.615,17068
4.249,-1.252,17068
4.250,-0.772,17068
4.251,-0.142,17068
4.252,0.468,17068
4.253,0.948,17068
4.254,1.258,17068
4.255,1.377,17068
4.256,1.308,17068
4.257,1.100,16858
4.258,0.790,16858
4.259,0.448,16858
4.260,-0.922,16858
4.261,-1.790,16858
4.262,-2.087,16858
4.263,-2.165,16858
4.264,-2.095,16858
4.265,-1.893,16546
4.266,-1.603,16546
4.267,-1.225,16546
4.268,-0.738,16546
4.269,-0.095,16546
4.270,0.532,16546
4.271,1.012,16546
4.272,1.323,16546
4.273,1.420,16546
4.274,1.350,16546
4.275,1.133,16138
4.276,0.828,16138
4.277,0.460,16138
4.278,-0.013,16138
4.279,-0.650,16138
4.280,-1.805,16138
4.281,-2.038,16138
4.282,-2.143,16138
4.283,-2.083,16138
4.284,-1.873,16138
4.285,-1.577,15797
4.286,-1.208,15797
4.287,-0.713,15797
4.288,-0.077,15797
4.289,0.542,15797
4.290,1.018,15797
4.291,1.323,15797
4.292,1.413,15797
4.293,1.333,15797
4.294,1.113,15797
4.295,0.818,15563
4.296,0.435,15563
4.297,-0.055,15563
4.298,-0.703,15563
4.299,-1.335,15563
4.300,-2.143,15563
4.301,-2.210,15563
4.302,-2.138,15563
4.303,-1.942,15563
4.304,-1.633,15503
4.305,-1.235,15503
4.306,-0.735,15503
4.307,-0.098,15503
4.308,0.532,15503
4.309,1.012,15503
4.310,1.325,15503
4.311,1.420,15503
4.312,1.337,15503
4.313,1.110,15503
4.314,0.818,15624
4.315,0.422,15624
4.316,-0.083,15624
4.317,-0.733,15624
4.318,-1.375,15624
4.319,-1.830,15624
4.320,-2.217,15624
4.321,-2.120,15624
4.322,-1.933,15624
4.323,-1.627,15887
4.324,-1.228,15887
4.325,-0.738,15887
4.326,-0.087,15887
4.327,0.540,15887
4.328,1.018,15887
4.329,1.333,15887
4.330,1.417,15887
4.331,1.327,15887
4.332,1.093,15887
4.333,0.767,16209
4.334,0.380,16209
4.335,-0.128,16209
4.336,-0.782,16209
4.337,-1.415,16209
4.338,-1.875,16209
4.339,-2.172,16209
4.340,-2.143,16209
4.341,-1.965,16209
4.342,-1.630,16518
4.343,-1.232,16518
4.344,-0.713,16518
4.345,-0.060,16518
4.346,0.575,16518
4.347,1.060,16518
4.348,1.367,16518
4.349,1.458,16518
4.350,1.367,16518
4.351,1.137,16518
4.352,0.792,16810
4.353,0.398,16810
4.354,-0.125,16810
4.355,-0.807,16810
4.356,-1.448,16810
4.357,-1.923,16810
4.358,-2.210,16810
4.359,-2.292,16810
4.360,-1.940,16810
4.361,-1.657,17029
4.362,-1.252,17029
4.363,-0.725,17029
4.364,-0.055,17029
4.365,0.588,17029
4.366,1.065,17029
4.367,1.367,17029
4.368,1.458,17029
4.369,1.355,17029
4.370,1.117,17029
4.371,0.792,17135
4.372,0.398,17135
4.373,-0.117,17135
4.374,-0.785,17135
4.375,-1.420,17135
4.376,-1.887,17135
4.377,-2.178,17135
4.378,-2.252,17135
4.379,-2.163,17135
4.380,-1.538,17146
4.381,-0.647,17146
4.382,0.022,17146
4.383,0.657,17146
4.384,1.115,17146
4.385,1.420,17146
4.386,1.502,17146
4.387,1.397,17146
4.388,1.167,17146
4.389,0.833,17143
4.390,0.425,17143
4.391,-0.113,17143
4.392,-0.812,17143
4.393,-1.452,17143
4.394,-1.938,17143
4.395,-2.217,17143
4.396,-2.297,17143
4.397,-2.192,17143
4.398,-1.970,17143
4.399,-1.633,17195
4.400,-0.573,17195
4.401,-0.003,17195
4.402,0.650,17195
4.403,1.117,17195
4.404,1.423,17195
4.405,1.508,17195
4.406,1.415,17195
4.407,1.173,17195
4.408,0.820,17231
4.409,0.417,17231
4.410,-0.107,17231
4.411,-0.780,17231
4.412,-1.420,17231
4.413,-1.900,17231
4.414,-2.188,17231
4.415,-2.260,17231
4.416,-2.163,17231
4.417,-1.907,17231
4.418,-1.565,17270
4.419,-1.140,17270
4.420,0.190,17270
4.421,0.708,17270
4.422,1.183,17270
4.423,1.478,17270
4.424,1.548,17270
4.425,1.433,17270
4.426,1.183,17270
4.427,0.848,17350
4.428,0.440,17350
4.429,-0.090,17350
4.430,-0.767,17350
4.431,-1.387,17350
4.432,-1.863,17350
4.433,-2.147,17350
4.434,-2.217,17350
4.435,-2.123,17350
4.436,-1.873,17350
4.437,-1.538,17461
4.438,-1.127,17461
4.439,-0.578,17461
4.440,0.833,17461
4.441,1.272,17461
4.442,1.498,17461
4.443,1.558,17461
4.444,1.462,17461
4.445,1.210,17461
4.446,0.863,17614
4.447,0.438,17614
4.448,-0.122,17614
4.449,-0.802,17614
4.450,-1.442,17614
4.451,-1.905,17614
4.452,-2.183,17614
4.453,-2.257,17614
4.454,-2.143,17614
4.455,-1.897,17614
4.456,-1.548,17751
4.457,-1.135,17751
4.458,-0.568,17751
4.459,0.117,17751
4.460,1.258,17751
4.461,1.475,17751
4.462,1.532,17751
4.463,1.405,17751
4.464,1.140,17751
4.465,0.775,17784
4.466,0.347,17784
4.467,-0.212,17784
4.468,-0.902,17784
4.469,-1.550,17784
4.470,-2.027,17784
4.471,-2.308,17784
4.472,-2.377,17784
4.473,-2.265,17784
4.474,-2.013,17784
4.475,-1.647,17676
4.476,-1.192,17676
4.477,-0.625,17676
4.478,0.080,17676
4.479,0.713,17676
4.480,1.498,17676
4.481,1.532,17676
4.482,1.410,17676
4.483,1.145,17676
4.484,0.772,17462
4.485,0.343,17462
4.486,-0.225,17462
4.487,-0.930,17462
4.488,-1.573,17462
4.489,-2.042,17462
4.490,-2.312,17462
4.491,-2.368,17462
4.492,-2.248,17462
4.493,-1.980,17462
4.494,-1.625,17190
4.495,-1.175,17190
4.496,-0.588,17190
4.497,0.110,17190
4.498,0.820,17190
4.499,1.238,17190
4.500,1.580,17190
4.501,1.353,17190
4.502,1.150,17190
4.503,0.775,16920
4.504,0.287,16920
4.505,-0.247,16920
4.506,-0.995,16920
4.507,-1.610,16920
4.508,-2.083,16920
4.509,-2.342,16920
4.510,-2.382,16920
4.511,-2.260,16920
4.512,-1.970,16920
4.513,-1.587,16724
4.514,-1.140,16724
4.515,-0.540,16724
4.516,0.177,16724
4.517,0.818,16724
4.518,1.268,16724
4.519,1.538,16724
4.520,1.387,16724
4.521,1.077,16724
4.522,0.757,16550
4.523,0.318,16550
4.524,-0.263,16550
4.525,-0.980,16550
4.526,-1.633,16550
4.527,-2.098,16550
4.528,-2.350,16550
4.529,-2.388,16550
4.530,-2.252,16550
4.531,-1.968,16550
4.532,-1.552,16408
4.533,-1.123,16408
4.534,-0.507,16408
4.535,0.207,16408
4.536,0.985,16408
4.537,1.330,16408
4.538,1.587,16408
4.539,1.630,16408
4.540,1.137,16408
4.541,0.815,16353
4.542,0.352,16353
4.543,-0.258,16353
4.544,-0.973,16353
4.545,-1.617,16353
4.546,-2.083,16353
4.547,-2.328,16353
4.548,-2.368,16353
4.549,-2.225,16353
4.550,-1.952,16353
4.551,-1.573,16353
4.552,-1.127,16520
4.553,-0.522,16520
4.554,0.188,16520
4.555,0.818,16520
4.556,1.252,16520
4.557,1.512,16520
4.558,1.542,16520
4.559,1.390,16520
4.560,0.677,16927
4.561,-0.407,16927
4.562,-1.107,16927
4.563,-1.748,16927
4.564,-2.192,16927
4.565,-2.388,16927
4.566,-2.413,16927
4.567,-2.268,16927
4.568,-1.978,16927
4.569,-1.600,16927
4.570,-1.133,17445
4.571,-0.505,17445
4.572,0.212,17445
4.573,0.838,17445
4.574,1.305,17445
4.575,1.552,17445
4.576,1.580,17445
4.577,1.427,17445
4.578,1.117,17445
4.579,0.733,17445
4.580,-0.438,17959
4.581,-1.692,17959
4.582,-2.132,17959
4.583,-2.373,17959
4.584,-2.402,17959
4.585,-2.248,17959
4.586,-1.962,17959
4.587,-1.567,17959
4.588,-1.105,18381
4.589,-0.490,18381
4.590,0.207,18381
4.591,0.838,18381
4.592,1.300,18381
4.593,1.532,18381
4.594,1.558,18381
4.595,1.413,18381
4.596,1.107,18381
4.597,0.730,18381
4.598,0.273,18542
4.599,-0.333,18542
4.600,-1.745,18542
4.601,-2.353,18542
4.602,-2.370,18542
4.603,-2.212,18542
4.604,-1.938,18542
4.605,-1.548,18542
4.606,-1.077,18480
4.607,-0.448,18480
4.608,0.233,18480
4.609,0.858,18480
4.610,1.308,18480
4.611,1.548,18480
4.612,1.558,18480
4.613,1.395,18480
4.614,1.093,18480
4.615,0.703,18480
4.616,0.247,18365
4.617,-0.388,18365
4.618,-1.087,18365
4.619,-1.708,18365
4.620,-2.382,18365
4.621,-2.382,18365
4.622,-2.217,18365
4.623,-1.933,18365
4.624,-1.532,18365
4.625,-1.073,18257
4.626,-0.443,18257
4.627,0.263,18257
4.628,0.892,18257
4.629,1.343,18257
4.630,1.583,18257
4.631,1.590,18257
4.632,1.425,18257
4.633,1.113,18257
4.634,0.713,18257
4.635,0.258,18169
4.636,-0.370,18169
4.637,-1.083,18169
4.638,-1.725,18169
4.639,-2.165,18169
4.640,-2.393,18169
4.641,-2.252,18169
4.642,-1.952,18169
4.643,-1.552,18169
4.644,-1.085,18129
4.645,-0.443,18129
4.646,0.265,18129
4.647,0.895,18129
4.648,1.343,18129
4.649,1.577,18129
4.650,1.587,18129
4.651,1.427,18129
4.652,1.117,18129
4.653,0.733,18129
4.654,0.263,17965
4.655,-0.380,17965
4.656,-1.105,17965
4.657,-1.738,17965
4.658,-2.183,17965
4.659,-2.417,17965
4.660,-2.212,17965
4.661,-1.873,17965
4.662,-1.528,17965
4.663,-1.058,17710
4.664,-0.410,17710
4.665,0.307,17710
4.666,0.940,17710
4.667,1.387,17710
4.668,1.613,17710
4.669,1.617,17710
4.670,1.425,17710
4.671,1.103,17710
4.672,0.703,17710
4.673,0.228,17329
4.674,-0.407,17329
4.675,-1.133,17329
4.676,-1.770,17329
4.677,-2.203,17329
4.678,-2.425,17329
4.679,-2.430,17329
4.680,-1.883,17329
4.681,-1.535,17329
4.682,-1.062,16953
4.683,-0.412,16953
4.684,0.295,16953
4.685,0.915,16953
4.686,1.357,16953
4.687,1.573,16953
4.688,1.573,16953
4.689,1.387,16953
4.690,1.062,16953
4.691,0.662,16953
4.692,0.193,16693
4.693,-0.463,16693
4.694,-1.170,16693
4.695,-1.805,16693
4.696,-2.212,16693
4.697,-2.433,16693
4.698,-2.413,16693
4.699,-2.248,16693
4.700,-1.460,16693
4.701,-1.055,16641
4.702,-0.403,16641
4.703,0.367,16641
4.704,0.920,16641
4.705,1.357,16641
4.706,1.577,16641
4.707,1.577,16641
4.708,1.397,16641
4.709,1.090,16641
4.710,0.698,16641
4.711,0.220,16700
4.712,-0.427,16700
4.713,-1.137,16700
4.714,-1.748,16700
4.715,-2.172,16700
4.716,-2.382,16700
4.717,-2.377,16700
4.718,-2.205,16700
4.719,-1.885,16700
4.720,-0.892,16916
4.721,0.378,16916
4.722,0.983,16916
4.723,1.393,16916
4.724,1.617,16916
4.725,1.587,16916
4.726,1.395,16916
4.727,1.070,16916
4.728,0.665,16916
4.729,0.185,17143
4.730,-0.458,17143
4.731,-1.170,17143
4.732,-1.785,17143
4.733,-2.208,17143
4.734,-2.413,17143
4.735,-2.402,17143
4.736,-2.212,17143
4.737,-1.897,17143
4.738,-1.492,17143
4.739,-1.010,17427
4.740,0.458,17427
4.741,0.948,17427
4.742,1.387,17427
4.743,1.587,17427
4.744,1.570,17427
4.745,1.373,17427
4.746,1.038,17427
4.747,0.632,17427
4.748,0.155,17664
4.749,-0.502,17664
4.750,-1.202,17664
4.751,-1.812,17664
4.752,-2.225,17664
4.753,-2.428,17664
4.754,-2.408,17664
4.755,-2.217,17664
4.756,-1.897,17664
4.757,-1.482,17664
4.758,-0.993,17788
4.759,-0.338,17788
4.760,1.062,17788
4.761,1.617,17788
4.762,1.567,17788
4.763,1.387,17788
4.764,1.055,17788
4.765,0.630,17788
4.766,0.142,17735
4.767,-0.532,17735
4.768,-1.242,17735
4.769,-1.847,17735
4.770,-2.263,17735
4.771,-2.453,17735
4.772,-2.442,17735
4.773,-2.248,17735
4.774,-1.923,17735
4.775,-1.498,17735
4.776,-1.000,17497
4.777,-0.335,17497
4.778,0.398,17497
4.779,1.028,17497
4.780,1.667,17497
4.781,1.587,17497
4.782,1.423,17497
4.783,1.077,17497
4.784,0.665,17497
4.785,0.158,17039
4.786,-0.512,17039
4.787,-1.232,17039
4.788,-1.857,17039
4.789,-2.272,17039
4.790,-2.465,17039
4.791,-2.442,17039
4.792,-2.245,17039
4.793,-1.900,17039
4.794,-1.448,17039
4.795,-0.948,16453
4.796,-0.268,16453
4.797,0.463,16453
4.798,1.077,16453
4.799,1.498,16453
4.800,1.617,16453
4.801,1.423,16453
4.802,1.073,16453
4.803,0.632,16453
4.804,0.142,16453
4.805,-0.542,15868
4.806,-1.292,15868
4.807,-1.893,15868
4.808,-2.300,15868
4.809,-2.487,15868
4.810,-2.455,15868
4.811,-2.245,15868
4.812,-1.893,15868
4.813,-1.460,15868
4.814,-0.938,15868
4.815,-0.260,15446
4.816,0.497,15446
4.817,1.097,15446
4.818,1.512,15446
4.819,1.708,15446
4.820,1.387,15446
4.821,1.058,15446
4.822,0.637,15446
4.823,0.128,15446
4.824,-0.552,15197
4.825,-1.333,15197
4.826,-1.940,15197
4.827,-2.345,15197
4.828,-2.533,15197
4.829,-2.500,15197
4.830,-2.292,15197
4.831,-1.942,15197
4.832,-1.492,15197
4.833,-0.968,15197
4.834,-0.258,15080
4.835,0.510,15080
4.836,1.117,15080
4.837,1.538,15080
4.838,1.732,15080
4.839,1.677,15080
4.840,1.005,15080
4.841,0.578,15080
4.842,-0.145,15140
4.843,-1.425,15140
4.844,-1.990,15140
4.845,-2.388,15140
4.846,-2.578,15140
4.847,-2.513,15140
4.848,-2.292,15140
4.849,-1.927,15140
4.850,-1.468,15140
4.851,-0.922,15140
4.852,-0.212,15234
4.853,0.547,15234
4.854,1.165,15234
4.855,1.570,15234
4.856,1.750,15234
4.857,1.700,15234
4.858,1.458,15234
4.859,1.073,15234
4.860,-0.033,15366
4.861,-1.407,15366
4.862,-2.022,15366
4.863,-2.420,15366
4.864,-2.607,15366
4.865,-2.538,15366
4.866,-2.308,15366
4.867,-1.940,15366
4.868,-1.470,15366
4.869,-0.912,15366
4.870,-0.203,15557
4.871,0.578,15557
4.872,1.198,15557
4.873,1.617,15557
4.874,1.795,15557
4.875,1.718,15557
4.876,1.470,15557
4.877,1.077,15557
4.878,0.610,15557
4.879,0.062,15557
4.880,-1.542,15750
4.881,-2.467,15750
4.882,-2.605,15750
4.883,-2.530,15750
4.884,-2.290,15750
4.885,-1.903,15750
4.886,-1.423,15750
4.887,-0.868,15750
4.888,-0.115,15930
4.889,0.655,15930
4.890,1.248,15930
4.891,1.663,15930
4.892,1.837,15930
4.893,1.758,15930
4.894,1.512,15930
4.895,1.107,15930
4.896,0.637,15930
4.897,0.092,15930
4.898,-0.647,16165
4.899,-1.427,16165
4.900,-2.482,16165
4.901,-2.607,16165
4.902,-2.530,16165
4.903,-2.288,16165
4.904,-1.900,16165
4.905,-1.423,16165
4.906,-0.858,16165
4.907,-0.133,16386
4.908,0.657,16386
4.909,1.258,16386
4.910,1.673,16386
4.911,1.857,16386
4.912,1.788,16386
4.913,1.528,16386
4.914,1.117,16386
4.915,0.657,16386
4.916,0.090,16386
4.917,-0.655,16586
4.918,-1.442,16586
4.919,-2.033,16586
4.920,-2.605,16586
4.921,-2.250,16586
4.922,-1.883,16586
4.923,-1.413,16586
4.924,-0.843,16586
4.925,-0.102,16795
4.926,0.677,16795
4.927,1.298,16795
4.928,1.690,16795
4.929,1.853,16795
4.930,1.758,16795
4.931,1.488,16795
4.932,1.062,16795
4.933,0.573,16795
4.934,-0.007,16795
4.935,-0.733,16851
4.936,-1.522,16851
4.937,-2.123,16851
4.938,-2.493,16851
4.939,-2.647,16851
4.940,-2.223,16851
4.941,-1.887,16851
4.942,-1.387,16851
4.943,-0.807,16851
4.944,-0.055,16742
4.945,0.738,16742
4.946,1.347,16742
4.947,1.752,16742
4.948,1.913,16742
4.949,1.817,16742
4.950,1.530,16742
4.951,1.097,16742
4.952,0.598,16742
4.953,0.020,16742
4.954,-0.750,16489
4.955,-1.552,16489
4.956,-2.163,16489
4.957,-2.538,16489
4.958,-2.688,16489
4.959,-2.603,16489
4.960,-1.833,16489
4.961,-0.672,16489
4.962,0.013,16107
4.963,1.450,16107
4.964,1.778,16107
4.965,1.910,16107
4.966,1.823,16107
4.967,1.535,16107
4.968,1.107,16107
4.969,0.608,16107
4.970,0.022,16107
4.971,-0.752,15493
4.972,-1.562,15493
4.973,-2.180,15493
4.974,-2.572,15493
4.975,-2.708,15493
4.976,-2.615,15493
4.977,-2.335,15493
4.978,-1.927,15493
4.979,-1.407,15493
4.980,0.128,14872
4.981,1.413,14872
4.982,1.833,14872
4.983,1.968,14872
4.984,1.847,14872
4.985,1.545,14872
4.986,1.097,14872
4.987,0.580,14872
4.988,-0.060,14872
4.989,-0.828,14068
4.990,-1.645,14068
4.991,-2.270,14068
4.992,-2.652,14068
4.993,-2.783,14068
4.994,-2.672,14068
4.995,-2.375,14068
4.996,-1.942,14068
4.997,-1.413,14068
4.998,-0.777,14068
4.999,0.022,13128
5.000,1.542,13128
5.001,1.873,13128
5.002,2.027,13128
5.003,1.907,13128
5.004,1.587,13128
5.005,1.143,13128
5.006,0.608,13128
5.007,-0.020,13128
5.008,-0.823,12224
5.009,-1.657,12224
5.010,-2.268,12224
5.011,-2.663,12224
5.012,-2.808,12224
5.013,-2.703,12224
5.014,-2.408,12224
5.015,-1.962,12224
5.016,-1.442,12224
5.017,-0.782,12224
5.018,0.025,11352
5.019,0.853,11352
5.020,1.945,11352
5.021,2.033,11352
5.022,1.933,11352
5.023,1.617,11352
5.024,1.157,11352
5.025,0.615,11352
5.026,-0.022,11352
5.027,-0.840,10548
5.028,-1.670,10548
5.029,-2.300,10548
5.030,-2.692,10548
5.031,-2.828,10548
5.032,-2.725,10548
5.033,-2.417,10548
5.034,-1.980,10548
5.035,-1.442,10548
5.036,-0.782,10548
5.037,0.048,9812
5.038,0.863,9812
5.039,1.508,9812
5.040,2.060,9812
5.041,1.860,9812
5.042,1.575,9812
5.043,1.073,9812
5.044,0.583,9812
5.045,-0.062,9812
5.046,-0.892,9287
5.047,-1.735,9287
5.048,-2.362,9287
5.049,-2.737,9287
5.050,-2.862,9287
5.051,-2.745,9287
5.052,-2.433,9287
5.053,-1.978,9287
5.054,-1.427,9287
5.055,-0.767,9287
5.056,0.072,9287
5.057,0.895,8950
5.058,1.542,8950
5.059,1.950,8950
5.060,1.893,8950
5.061,1.518,8950
5.062,1.095,8950
5.063,0.540,8950
5.064,-0.115,8950
5.065,-0.948,8950
5.066,-1.788,8711
5.067,-2.428,8711
5.068,-2.803,8711
5.069,-2.913,8711
5.070,-2.783,8711
5.071,-2.453,8711
5.072,-1.982,8711
5.073,-1.417,8711
5.074,-0.738,8711
5.075,0.107,8711
5.076,0.943,8556
5.077,1.613,8556
5.078,1.998,8556
5.079,2.127,8556
5.080,1.552,8556
5.081,1.143,8556
5.082,0.575,8556
5.083,-0.100,8556
5.084,-0.963,8556
5.085,-1.990,8510
5.086,-2.812,8510
5.087,-2.928,8510
5.088,-2.780,8510
5.089,-2.447,8510
5.090,-1.972,8510
5.091,-1.397,8510
5.092,-0.703,8510
5.093,0.147,8510
5.094,0.990,8523
5.095,1.637,8523
5.096,2.033,8523
5.097,2.152,8523
5.098,2.010,8523
5.099,1.647,8523
5.100,0.477,8523
5.101,-0.098,8523
5.102,-0.945,8523
5.103,-1.790,8596
5.104,-2.428,8596
5.105,-2.810,8596
5.106,-2.930,8596
5.107,-2.790,8596
5.108,-2.462,8596
5.109,-1.992,8596
5.110,-1.417,8596
5.111,-0.728,8596
5.112,0.130,8596
5.113,0.978,8731
5.114,1.637,8731
5.115,2.045,8731
5.116,2.178,8731
5.117,2.018,8731
5.118,1.657,8731
5.119,1.153,8731
5.120,-0.247,8731
5.121,-0.988,8731
5.122,-1.843,8835
5.123,-2.470,8835
5.124,-2.848,8835
5.125,-2.953,8835
5.126,-2.808,8835
5.127,-2.458,8835
5.128,-1.975,8835
5.129,-1.387,8835
5.130,-0.672,8835
5.131,0.205,8835
5.132,1.048,8924
5.133,1.708,8924
5.134,2.118,8924
5.135,2.237,8924
5.136,2.070,8924
5.137,1.698,8924
5.138,1.183,8924
5.139,0.593,8924
5.140,-1.137,8924
5.141,-1.847,9049
5.142,-2.493,9049
5.143,-2.862,9049
5.144,-2.962,9049
5.145,-2.812,9049
5.146,-2.453,9049
5.147,-1.952,9049
5.148,-1.355,9049
5.149,-0.642,9049
5.150,0.237,9049
5.151,1.077,9159
5.152,1.732,9159
5.153,2.132,9159
5.154,2.237,9159
5.155,2.067,9159
5.156,1.695,9159
5.157,1.180,9159
5.158,0.588,9159
5.159,-0.128,9159
5.160,-1.978,9239
5.161,-2.862,9239
5.162,-2.967,9239
5.163,-2.810,9239
5.164,-2.462,9239
5.165,-1.968,9239
5.166,-1.373,9239
5.167,-0.647,9239
5.168,0.250,9239
5.169,1.097,9369
5.170,1.758,9369
5.171,2.172,9369
5.172,2.288,9369
5.173,2.112,9369
5.174,1.728,9369
5.175,1.117,9369
5.176,0.578,9369
5.177,-0.133,9369
5.178,-1.032,9369
5.179,-1.897,9571
5.180,-2.945,9571
5.181,-3.007,9571
5.182,-2.777,9571
5.183,-2.467,9571
5.184,-1.978,9571
5.185,-1.373,9571
5.186,-0.623,9571
5.187,0.268,9571
5.188,1.117,9771
5.189,1.798,9771
5.190,2.192,9771
5.191,2.308,9771
5.192,2.118,9771
5.193,1.718,9771
5.194,1.192,9771
5.195,0.588,9771
5.196,-0.160,9771
5.197,-1.055,9771
5.198,-1.927,10003
5.199,-2.567,10003
5.200,-2.993,10003
5.201,-2.833,10003
5.202,-2.467,10003
5.203,-1.948,10003
5.204,-1.330,10003
5.205,-0.565,10003
5.206,0.345,10003
5.207,1.198,10308
5.208,1.867,10308
5.209,2.268,10308
5.210,2.348,10308
5.211,2.158,10308
5.212,1.748,10308
5.213,1.208,10308
5.214,0.583,10308
5.215,-0.168,10308
5.216,-1.090,10308
5.217,-1.952,10557
5.218,-2.607,10557
5.219,-2.967,10557
5.220,-2.833,10557
5.221,-1.965,10557
5.222,-1.073,10557
5.223,-0.537,10557
5.224,0.338,10557
5.225,1.218,10789
5.226,1.893,10789
5.227,2.297,10789
5.228,2.382,10789
5.229,2.172,10789
5.230,1.745,10789
5.231,1.192,10789
5.232,0.552,10789
5.233,-0.207,10789
5.234,-1.147,10789
5.235,-2.022,10948
5.236,-2.667,10948
5.237,-3.042,10948
5.238,-3.107,10948
5.239,-2.933,10948
5.240,-1.900,10948
5.241,-1.252,10948
5.242,-0.537,10948
5.243,0.435,10948
5.244,1.225,10975
5.245,1.897,10975
5.246,2.308,10975
5.247,2.390,10975
5.248,2.178,10975
5.249,1.758,10975
5.250,1.208,10975
5.251,0.570,10975
5.252,-0.207,10975
5.253,-1.137,10975
5.254,-2.027,11074
5.255,-2.663,11074
5.256,-3.040,11074
5.257,-3.103,11074
5.258,-2.922,11074
5.259,-2.530,11074
5.260,-1.238,11074
5.261,-0.583,11074
5.262,0.345,11074
5.263,1.218,11094
5.264,1.893,11094
5.265,2.295,11094
5.266,2.373,11094
5.267,2.172,11094
5.268,1.748,11094
5.269,1.180,11094
5.270,0.540,11094
5.271,-0.247,11094
5.272,-1.238,11094
5.273,-2.047,11080
5.274,-2.697,11080
5.275,-3.058,11080
5.276,-3.112,11080
5.277,-2.928,11080
5.278,-2.502,11080
5.279,-1.978,11080
5.280,-0.372,11080
5.281,0.425,11080
5.282,1.323,11025
5.283,1.988,11025
5.284,2.388,11025
5.285,2.473,11025
5.286,2.255,11025
5.287,1.812,11025
5.288,1.228,11025
5.289,0.573,11025
5.290,-0.230,11025
5.291,-1.188,11025
5.292,-2.090,10925
5.293,-2.732,10925
5.294,-3.087,10925
5.295,-3.145,10925
5.296,-2.938,10925
5.297,-2.533,10925
5.298,-1.972,10925
5.299,-1.323,10925
5.300,0.608,10925
5.301,1.333,10923
5.302,1.988,10923
5.303,2.380,10923
5.304,2.453,10923
5.305,2.208,10923
5.306,1.752,10923
5.307,1.180,10923
5.308,0.530,10923
5.309,-0.268,10923
5.310,-1.222,10923
5.311,-2.112,10983
5.312,-2.745,10983
5.313,-3.087,10983
5.314,-3.145,10983
5.315,-2.942,10983
5.316,-2.527,10983
5.317,-1.970,10983
5.318,-1.312,10983
5.319,-0.497,10983
5.320,1.475,11118
5.321,2.428,11118
5.322,2.487,11118
5.323,2.232,11118
5.324,1.782,11118
5.325,1.183,11118
5.326,0.517,11118
5.327,-0.292,11118
5.328,-1.250,11118
5.329,-2.143,11118
5.330,-2.770,11358
5.331,-3.110,11358
5.332,-3.147,11358
5.333,-2.940,11358
5.334,-2.522,11358
5.335,-1.968,11358
5.336,-1.302,11358
5.337,-0.490,11358
5.338,0.468,11358
5.339,1.355,11358
5.340,2.428,11599
5.341,2.188,11599
5.342,1.735,11599
5.343,1.150,11599
5.344,0.502,11599
5.345,-0.323,11599
5.346,-1.262,11599
5.347,-2.152,11599
5.348,-2.763,11895
5.349,-3.100,11895
5.350,-3.138,11895
5.351,-2.908,11895
5.352,-2.493,11895
5.353,-1.927,11895
5.354,-1.250,11895
5.355,-0.427,11895
5.356,0.532,11895
5.357,1.417,11895
5.358,2.072,12177
5.359,2.470,12177
5.360,2.197,12177
5.361,1.792,12177
5.362,1.195,12177
5.363,0.535,12177
5.364,-0.287,12177
5.365,-1.250,12177
5.366,-2.138,12177
5.367,-2.785,12502
5.368,-3.112,12502
5.369,-3.147,12502
5.370,-2.935,12502
5.371,-2.518,12502
5.372,-1.968,12502
5.373,-1.268,12502
5.374,-0.487,12502
5.375,0.472,12502
5.376,1.357,12502
5.377,2.010,12762
5.378,2.388,12762
5.379,2.430,12762
5.380,1.623,12762
5.381,1.133,12762
5.382,0.465,12762
5.383,-0.345,12762
5.384,-1.298,12762
5.385,-2.160,12762
5.386,-2.768,12927
5.387,-3.103,12927
5.388,-3.130,12927
5.389,-2.908,12927
5.390,-2.487,12927
5.391,-1.903,12927
5.392,-1.228,12927
5.393,-0.403,12927
5.394,0.552,12927
5.395,1.425,12927
5.396,2.065,12994
5.397,2.442,12994
5.398,2.467,12994
5.399,2.192,12994
5.400,1.018,12994
5.401,0.458,12994
5.402,-0.455,12994
5.403,-1.458,12994
5.404,-2.215,12994
5.405,-2.817,12930
5.406,-3.165,12930
5.407,-3.170,12930
5.408,-2.942,12930
5.409,-2.507,12930
5.410,-1.935,12930
5.411,-1.248,12930
5.412,-0.407,12930
5.413,0.568,12930
5.414,1.450,12930
5.415,2.100,12822
5.416,2.475,12822
5.417,2.473,12822
5.418,2.190,12822
5.419,1.657,12822
5.420,0.343,12822
5.421,-0.367,12822
5.422,-1.347,12822
5.423,-2.212,12822
5.424,-2.822,12710
5.425,-3.145,12710
5.426,-3.167,12710
5.427,-2.938,12710
5.428,-2.498,12710
5.429,-1.927,12710
5.430,-1.232,12710
5.431,-0.393,12710
5.432,0.575,12710
5.433,1.438,12710
5.434,2.070,12655
5.435,2.447,12655
5.436,2.460,12655
5.437,2.183,12655
5.438,1.708,12655
5.439,1.100,12655
5.440,-0.568,12655
5.441,-1.377,12655
5.442,-2.245,12655
5.443,-2.820,12660
5.444,-3.132,12660
5.445,-3.143,12660
5.446,-2.908,12660
5.447,-2.458,12660
5.448,-1.865,12660
5.449,-1.177,12660
5.450,-0.343,12660
5.451,0.618,12660
5.452,1.500,12660
5.453,2.127,12778
5.454,2.487,12778
5.455,2.495,12778
5.456,2.208,12778
5.457,1.728,12778
5.458,1.105,12778
5.459,0.427,12778
5.460,-1.545,12778
5.461,-2.248,12778
5.462,-2.828,12910
5.463,-3.143,12910
5.464,-3.143,12910
5.465,-2.888,12910
5.466,-2.460,12910
5.467,-1.867,12910
5.468,-1.185,12910
5.469,-0.347,12910
5.470,0.608,12910
5.471,1.502,12910
5.472,2.197,13098
5.473,2.455,13098
5.474,2.175,13098
5.475,1.698,13098
5.476,1.090,13098
5.477,0.417,13098
5.478,-0.432,13098
5.479,-1.417,13098
5.480,-2.987,13258
5.481,-3.230,13258
5.482,-2.982,13258
5.483,-2.527,13258
5.484,-1.933,13258
5.485,-1.220,13258
5.486,-0.268,13258
5.487,0.672,13258
5.488,1.548,13258
5.489,2.200,13360
5.490,2.587,13360
5.491,2.598,13360
5.492,2.288,13360
5.493,1.780,13360
5.494,1.143,13360
5.495,0.430,13360
5.496,-0.453,13360
5.497,-1.480,13360
5.498,-2.353,13360
5.499,-2.945,13413
5.500,-3.255,13413
5.501,-2.970,13413
5.502,-2.535,13413
5.503,-1.938,13413
5.504,-1.220,13413
5.505,-0.242,13413
5.506,0.728,13413
5.507,1.558,13413
5.508,2.212,13337
5.509,2.598,13337
5.510,2.580,13337
5.511,2.257,13337
5.512,1.738,13337
5.513,1.153,13337
5.514,0.448,13337
5.515,-0.422,13337
5.516,-1.423,13337
5.517,-2.308,13337
5.518,-2.900,13157
5.519,-3.228,13157
5.520,-2.908,13157
5.521,-2.507,13157
5.522,-1.907,13157
5.523,-1.212,13157
5.524,-0.110,13157
5.525,0.682,13157
5.526,1.552,13157
5.527,2.197,12974
5.528,2.583,12974
5.529,2.587,12974
5.530,2.272,12974
5.531,1.775,12974
5.532,1.133,12974
5.533,0.425,12974
5.534,-0.455,12974
5.535,-1.470,12974
5.536,-2.337,12974
5.537,-2.938,12762
5.538,-3.250,12762
5.539,-3.243,12762
5.540,-2.422,12762
5.541,-1.778,12762
5.542,-1.153,12762
5.543,-0.297,12762
5.544,0.703,12762
5.545,1.587,12762
5.546,2.237,12639
5.547,2.623,12639
5.548,2.607,12639
5.549,2.288,12639
5.550,1.775,12639
5.551,1.117,12639
5.552,0.417,12639
5.553,-0.487,12639
5.554,-1.498,12639
5.555,-2.362,12639
5.556,-2.965,12662
5.557,-3.270,12662
5.558,-3.260,12662
5.559,-2.982,12662
5.560,-1.643,12662
5.561,-1.103,12662
5.562,-0.242,12662
5.563,0.767,12662
5.564,1.655,12662
5.565,2.297,12704
5.566,2.652,12704
5.567,2.615,12704
5.568,2.263,12704
5.569,1.748,12704
5.570,1.090,12704
5.571,0.307,12704
5.572,-0.522,12704
5.573,-1.512,12704
5.574,-2.375,12704
5.575,-2.962,12772
5.576,-3.263,12772
5.577,-3.232,12772
5.578,-2.953,12772
5.579,-2.487,12772
5.580,-1.002,12772
5.581,-0.223,12772
5.582,0.777,12772
5.583,1.705,12772
5.584,2.330,12897
5.585,2.658,12897
5.586,2.620,12897
5.587,2.277,12897
5.588,1.742,12897
5.589,1.093,12897
5.590,0.378,12897
5.591,-0.540,12897
5.592,-1.552,12897
5.593,-2.420,12897
5.594,-2.993,12897
5.595,-3.305,13068
5.596,-3.268,13068
5.597,-2.987,13068
5.598,-2.368,13068
5.599,-1.843,13068
5.600,-0.087,13068
5.601,0.835,13068
5.602,1.655,13068
5.603,2.277,13068
5.604,2.623,13376
5.605,2.598,13376
5.606,2.257,13376
5.607,1.738,13376
5.608,1.097,13376
5.609,0.378,13376
5.610,-0.532,13376
5.611,-1.552,13376
5.612,-2.425,13376
5.613,-3.018,13376
5.614,-3.308,13712
5.615,-3.290,13712
5.616,-3.010,13712
5.617,-2.533,13712
5.618,-1.903,13712
5.619,-1.167,13712
5.620,0.930,13712
5.621,1.665,13712
5.622,2.303,13712
5.623,2.650,14151
5.624,2.615,14151
5.625,2.272,14151
5.626,1.738,14151
5.627,1.077,14151
5.628,0.340,14151
5.629,-0.575,14151
5.630,-1.613,14151
5.631,-2.462,14151
5.632,-3.047,14151
5.633,-3.333,14705
5.634,-3.303,14705
5.635,-3.013,14705
5.636,-2.522,14705
5.637,-1.897,14705
5.638,-1.153,14705
5.639,-0.223,14705
5.640,1.823,14705
5.641,2.333,14705
5.642,2.667,15374
5.643,2.623,15374
5.644,2.272,15374
5.645,1.732,15374
5.646,1.073,15374
5.647,0.345,15374
5.648,-0.583,15374
5.649,-1.613,15374
5.650,-2.465,15374
5.651,-3.042,15374
5.652,-3.312,16106
5.653,-3.283,16106
5.654,-2.982,16106
5.655,-2.502,16106
5.656,-1.863,16106
5.657,-1.110,16106
5.658,-0.090,16106
5.659,0.877,16106
5.660,2.417,16106
5.661,2.667,16822
5.662,2.623,16822
5.663,2.255,16822
5.664,1.712,16822
5.665,1.073,16822
5.666,0.343,16822
5.667,-0.588,16822
5.668,-1.607,16822
5.669,-2.455,16822
5.670,-3.013,16822
5.671,-3.288,17404
5.672,-3.252,17404
5.673,-2.958,17404
5.674,-2.470,17404
5.675,-1.850,17404
5.676,-1.103,17404
5.677,-0.188,17404
5.678,0.823,17404
5.679,1.695,17404
5.680,2.660,18026
5.681,2.220,18026
5.682,1.692,18026
5.683,1.038,18026
5.684,0.305,18026
5.685,-0.620,18026
5.686,-1.653,18026
5.687,-2.493,18026
5.688,-3.053,18026
5.689,-3.312,18501
5.690,-3.268,18501
5.691,-2.970,18501
5.692,-2.482,18501
5.693,-1.845,18501
5.694,-1.097,18501
5.695,-0.170,18501
5.696,0.860,18501
5.697,1.738,18501
5.698,2.353,18501
5.699,2.695,18914
5.700,2.192,18914
5.701,1.732,18914
5.702,1.067,18914
5.703,0.318,18914
5.704,-0.608,18914
5.705,-1.643,18914
5.706,-2.493,18914
5.707,-3.058,18914
5.708,-3.308,19165
5.709,-3.260,19165
5.710,-2.965,19165
5.711,-2.462,19165
5.712,-1.830,19165
5.713,-1.077,19165
5.714,-0.135,19165
5.715,0.887,19165
5.716,1.752,19165
5.717,2.380,19165
5.718,2.697,19289
5.719,2.632,19289
5.720,1.597,19289
5.721,0.980,19289
5.722,0.253,19289
5.723,-0.655,19289
5.724,-1.675,19289
5.725,-2.518,19289
5.726,-3.083,19289
5.727,-3.345,19271
5.728,-3.303,19271
5.729,-2.995,19271
5.730,-2.500,19271
5.731,-1.855,19271
5.732,-1.097,19271
5.733,-0.163,19271
5.734,0.870,19271
5.735,1.738,19271
5.736,2.360,19271
5.737,2.675,19186
5.738,2.620,19186
5.739,2.237,19186
5.740,0.917,19186
5.741,0.292,19186
5.742,-0.657,19186
5.743,-1.673,19186
5.744,-2.513,19186
5.745,-3.075,19186
5.746,-3.340,19092
5.747,-3.288,19092
5.748,-2.982,19092
5.749,-2.487,19092
5.750,-1.853,19092
5.751,-1.087,19092
5.752,-0.147,19092
5.753,0.868,19092
5.754,1.718,19092
5.755,2.348,19092
5.756,2.647,19018
5.757,2.570,19018
5.758,2.195,19018
5.759,1.657,19018
5.760,0.117,19018
5.761,-0.688,19018
5.762,-1.695,19018
5.763,-2.522,19018
5.764,-3.072,19018
5.765,-3.310,19027
5.766,-3.248,19027
5.767,-2.933,19027
5.768,-2.417,19027
5.769,-1.775,19027
5.770,-1.018,19027
5.771,-0.062,19027
5.772,0.940,19027
5.773,1.788,19027
5.774,2.377,19027
5.775,2.672,19081
5.776,2.580,19081
5.777,2.195,19081
5.778,1.647,19081
5.779,0.983,19081
5.780,-0.873,19081
5.781,-1.715,19081
5.782,-2.533,19081
5.783,-3.072,19081
5.784,-3.308,19140
5.785,-3.248,19140
5.786,-2.933,19140
5.787,-2.430,19140
5.788,-1.788,19140
5.789,-1.042,19140
5.790,-0.092,19140
5.791,0.917,19140
5.792,1.748,19140
5.793,2.333,19140
5.794,2.618,19124
5.795,2.500,19124
5.796,2.132,19124
5.797,1.577,19124
5.798,0.927,19124
5.799,0.193,19124
5.800,-1.887,19124
5.801,-2.627,19124
5.802,-3.083,19124
5.803,-3.297,19137
5.804,-2.888,19137
5.805,-2.388,19137
5.806,-1.745,19137
5.807,-1.002,19137
5.808,-0.062,19137
5.809,0.940,19137
5.810,1.780,19137
5.811,2.348,19137
5.812,2.627,19145
5.813,2.513,19145
5.814,2.138,19145
5.815,1.583,19145
5.816,0.907,19145
5.817,0.158,19145
5.818,-0.775,19145
5.819,-1.772,19145
5.820,-3.127,19145
5.821,-3.288,19115
5.822,-3.185,19115
5.823,-2.862,19115
5.824,-2.353,19115
5.825,-1.712,19115
5.826,-0.963,19115
5.827,-0.022,19115
5.828,0.980,19115
5.829,1.810,19115
5.830,2.382,19115
5.831,2.658,19052
5.832,2.535,19052
5.833,2.150,19052
5.834,1.583,19052
5.835,0.912,19052
5.836,0.158,19052
5.837,-0.802,19052
5.838,-1.802,19052
5.839,-2.610,19052
5.840,-3.340,18936
5.841,-2.925,18936
5.842,-2.408,18936
5.843,-1.768,18936
5.844,-0.993,18936
5.845,-0.045,18936
5.846,0.955,18936
5.847,1.788,18936
5.848,2.353,18936
5.849,2.627,18936
5.850,2.498,18841
5.851,2.127,18841
5.852,1.570,18841
5.853,0.910,18841
5.854,0.158,18841
5.855,-0.782,18841
5.856,-1.812,18841
5.857,-2.585,18841
5.858,-3.085,18841
5.859,-3.297,18841
5.860,-2.812,18841
5.861,-1.728,18841
5.862,-0.980,18841
5.863,-0.030,18841
5.864,0.958,18841
5.865,1.790,18841
5.866,2.348,18841
5.867,2.618,18841
5.868,2.493,19013
5.869,2.100,19013
5.870,1.542,19013
5.871,0.873,19013
5.872,0.117,19013
5.873,-0.828,19013
5.874,-1.823,19013
5.875,-2.612,19013
5.876,-3.103,19013
5.877,-3.308,19013
5.878,-3.212,19243
5.879,-2.857,19243
5.880,-1.577,19243
5.881,-0.745,19243
5.882,0.080,19243
5.883,1.015,19243
5.884,1.827,19243
5.885,2.375,19243
5.886,2.623,19243
5.887,2.498,19567
5.888,2.098,19567
5.889,1.538,19567
5.890,0.873,19567
5.891,0.128,19567
5.892,-0.833,19567
5.893,-1.823,19567
5.894,-2.607,19567
5.895,-3.092,19567
5.896,-3.292,19567
5.897,-3.183,20016
5.898,-2.833,20016
5.899,-2.312,20016
5.900,-0.750,20016
5.901,0.048,20016
5.902,1.018,20016
5.903,1.817,20016
5.904,2.353,20016
5.905,2.607,20016
5.906,2.467,20433
5.907,2.067,20433
5.908,1.522,20433
5.909,0.860,20433
5.910,0.102,20433
5.911,-0.848,20433
5.912,-1.815,20433
5.913,-2.592,20433
5.914,-3.083,20433
5.915,-3.283,20433
5.916,-3.167,20763
5.917,-2.820,20763
5.918,-2.300,20763
5.919,-1.655,20763
5.920,0.233,20763
5.921,1.035,20763
5.922,1.853,20763
5.923,2.388,20763
5.924,2.623,20763
5.925,2.487,21020
5.926,2.072,21020
5.927,1.528,21020
5.928,0.860,21020
5.929,0.102,21020
5.930,-0.858,21020
5.931,-1.843,21020
5.932,-2.615,21020
5.933,-3.098,21020
5.934,-3.285,21020
5.935,-3.172,21216
5.936,-2.815,21216
5.937,-2.300,21216
5.938,-1.647,21216
5.939,-0.868,21216
5.940,1.210,21216
5.941,1.863,21216
5.942,2.382,21216
5.943,2.610,21216
5.944,2.453,21316
5.945,2.038,21316
5.946,1.482,21316
5.947,0.777,21316
5.948,0.062,21316
5.949,-0.897,21316
5.950,-1.867,21316
5.951,-2.623,21316
5.952,-3.098,21316
5.953,-3.268,21316
5.954,-3.147,21390
5.955,-2.785,21390
5.956,-2.270,21390
5.957,-1.623,21390
5.958,-0.850,21390
5.959,0.107,21390
5.960,1.988,21390
5.961,2.417,21390
5.962,2.632,21390
5.963,2.470,21483
5.964,2.053,21483
5.965,1.488,21483
5.966,0.818,21483
5.967,0.048,21483
5.968,-0.912,21483
5.969,-1.897,21483
5.970,-2.652,21483
5.971,-3.123,21483
5.972,-3.303,21483
5.973,-3.175,21658
5.974,-2.817,21658
5.975,-2.292,21658
5.976,-1.633,21658
5.977,-0.853,21658
5.978,0.107,21658
5.979,1.067,21658
5.980,2.438,21658
5.981,2.598,21658
5.982,2.435,21884
5.983,2.018,21884
5.984,1.468,21884
5.985,0.797,21884
5.986,0.052,21884
5.987,-0.902,21884
5.988,-1.873,21884
5.989,-2.627,21884
5.990,-3.092,21884
5.991,-3.260,21884
5.992,-3.135,22164
5.993,-2.775,22164
5.994,-2.250,22164
5.995,-1.587,22164
5.996,-0.818,22164
5.997,0.135,22164
5.998,1.087,22164
5.999,1.860,22164
6.000,2.553,22164
6.001,2.417,22388
6.002,1.995,22388
6.003,1.433,22388
6.004,0.772,22388
6.005,0.015,22388
6.006,-0.938,22388
6.007,-1.900,22388
6.008,-2.632,22388
6.009,-3.085,22388
6.010,-3.248,22388
6.011,-3.112,22496
6.012,-2.748,22496
6.013,-2.220,22496
6.014,-1.567,22496
6.015,-0.805,22496
6.016,0.140,22496
6.017,1.100,22496
6.018,1.873,22496
6.019,2.380,22496
6.020,2.355,22494
6.021,1.435,22494
6.022,0.770,22494
6.023,0.013,22494
6.024,-0.948,22494
6.025,-1.923,22494
6.026,-2.655,22494
6.027,-3.105,22494
6.028,-3.268,22494
6.029,-3.138,22368
6.030,-2.783,22368
6.031,-2.263,22368
6.032,-1.610,22368
6.033,-0.823,22368
6.034,0.128,22368
6.035,1.085,22368
6.036,1.857,22368
6.037,2.370,22368
6.038,2.550,22368
6.039,2.415,22163
6.040,1.343,22163
6.041,0.777,22163
6.042,0.037,22163
6.043,-0.973,22163
6.044,-1.887,22163
6.045,-2.618,22163
6.046,-3.062,22163
6.047,-3.220,22163
6.048,-3.083,22022
6.049,-2.720,22022
6.050,-2.183,22022
6.051,-1.532,22022
6.052,-0.767,22022
6.053,0.182,22022
6.054,1.117,22022
6.055,1.867,22022
6.056,2.357,22022
6.057,2.518,22022
6.058,2.353,21781
6.059,1.917,21781
6.060,0.613,21781
6.061,-0.048,21781
6.062,-0.983,21781
6.063,-1.927,21781
6.064,-2.632,21781
6.065,-3.075,21781
6.066,-3.228,21781
6.067,-3.087,21444
6.068,-2.708,21444
6.069,-2.183,21444
6.070,-1.530,21444
6.071,-0.748,21444
6.072,0.207,21444
6.073,1.143,21444
6.074,1.900,21444
6.075,2.382,21444
6.076,2.575,21444
6.077,2.388,21125
6.078,1.958,21125
6.079,1.393,21125
6.080,-0.193,21125
6.081,-1.002,21125
6.082,-1.942,21125
6.083,-2.658,21125
6.084,-3.092,21125
6.085,-3.240,21125
6.086,-3.095,20718
6.087,-2.728,20718
6.088,-2.190,20718
6.089,-1.530,20718
6.090,-0.740,20718
6.091,0.212,20718
6.092,1.150,20718
6.093,1.887,20718
6.094,2.357,20718
6.095,2.513,20718
6.096,2.340,20400
6.097,1.903,20400
6.098,1.343,20400
6.099,0.682,20400
6.100,-1.173,20400
6.101,-2.127,20400
6.102,-2.708,20400
6.103,-3.045,20400
6.104,-3.138,20400
6.105,-2.973,20400
6.106,-2.618,20166
6.107,-2.067,20166
6.108,-1.445,20166
6.109,-0.688,20166
6.110,0.228,20166
6.111,1.137,20166
6.112,1.853,20166
6.113,2.308,20166
6.114,2.458,20166
6.115,2.268,20166
6.116,1.853,20037
6.117,1.275,20037
6.118,0.630,20037
6.119,-0.115,20037
6.120,-2.127,20037
6.121,-2.683,20037
6.122,-3.100,20037
6.123,-3.232,20037
6.124,-3.087,20037
6.125,-2.720,20063
6.126,-2.165,20063
6.127,-1.512,20063
6.128,-0.730,20063
6.129,0.217,20063
6.130,1.150,20063
6.131,1.877,20063
6.132,2.353,20063
6.133,2.507,20063
6.134,2.317,20063
6.135,1.897,20233
6.136,1.333,20233
6.137,0.688,20233
6.138,-0.087,20233
6.139,-1.022,20233
6.140,-2.772,20233
6.141,-3.062,20233
6.142,-3.180,20233
6.143,-3.022,20233
6.144,-2.667,20515
6.145,-2.123,20515
6.146,-1.450,20515
6.147,-0.703,20515
6.148,0.223,20515
6.149,1.140,20515
6.150,1.863,20515
6.151,2.317,20515
6.152,2.470,20515
6.153,2.300,20515
6.154,1.877,20867
6.155,1.308,20867
6.156,0.660,20867
6.157,-0.110,20867
6.158,-1.058,20867
6.159,-1.985,20867
6.160,-3.138,20867
6.161,-3.212,20867
6.162,-3.050,20867
6.163,-2.672,21393
6.164,-2.130,21393
6.165,-1.488,21393
6.166,-0.693,21393
6.167,0.253,21393
6.168,1.173,21393
6.169,1.897,21393
6.170,2.350,21393
6.171,2.498,21393
6.172,2.303,21393
6.173,1.873,22118
6.174,1.308,22118
6.175,0.630,22118
6.176,-0.138,22118
6.177,-1.087,22118
6.178,-2.002,22118
6.179,-2.675,22118
6.180,-3.183,22118
6.181,-3.027,22118
6.182,-2.658,22728
6.183,-2.112,22728
6.184,-1.472,22728
6.185,-0.688,22728
6.186,0.253,22728
6.187,1.157,22728
6.188,1.867,22728
6.189,2.317,22728
6.190,2.447,22728
6.191,2.257,22728
6.192,1.830,23240
6.193,1.248,23240
6.194,0.610,23240
6.195,-0.170,23240
6.196,-1.103,23240
6.197,-2.013,23240
6.198,-2.688,23240
6.199,-3.083,23240
6.200,-2.980,23240
6.201,-2.518,23416
6.202,-1.380,23416
6.203,-0.627,23416
6.204,0.297,23416
6.205,1.212,23416
6.206,1.917,23416
6.207,2.368,23416
6.208,2.493,23416
6.209,2.292,23416
6.210,1.857,23331
6.211,1.258,23331
6.212,0.608,23331
6.213,-0.182,23331
6.214,-1.127,23331
6.215,-2.033,23331
6.216,-2.703,23331
6.217,-3.098,23331
6.218,-3.188,23331
6.219,-3.013,23331
6.220,-1.970,22934
6.221,-0.547,22934
6.222,0.307,22934
6.223,1.192,22934
6.224,1.873,22934
6.225,2.300,22934
6.226,2.415,22934
6.227,2.197,22934
6.228,1.780,22449
6.229,1.205,22449
6.230,0.578,22449
6.231,-0.185,22449
6.232,-1.103,22449
6.233,-1.988,22449
6.234,-2.618,22449
6.235,-2.978,22449
6.236,-3.067,22449
6.237,-2.865,22449
6.238,-2.493,22002
6.239,-1.942,22002
6.240,-0.405,22002
6.241,0.367,22002
6.242,1.980,22002
6.243,2.300,22002
6.244,2.388,22002
6.245,2.178,22002
6.246,1.748,21640
6.247,1.190,21640
6.248,0.547,21640
6.249,-0.207,21640
6.250,-1.130,21640
6.251,-2.005,21640
6.252,-2.643,21640
6.253,-3.002,21640
6.254,-3.085,21640
6.255,-2.897,21640
6.256,-2.507,21202
6.257,-1.968,21202
6.258,-1.330,21202
6.259,-0.568,21202
6.260,1.343,21202
6.261,1.863,21202
6.262,2.260,21202
6.263,2.337,21202
6.264,2.115,21202
6.265,1.688,20767
6.266,1.113,20767
6.267,0.497,20767
6.268,-0.263,20767
6.269,-1.173,20767
6.270,-2.025,20767
6.271,-2.652,20767
6.272,-2.993,20767
6.273,-3.067,20767
6.274,-2.862,20767
6.275,-2.465,20373
6.276,-1.927,20373
6.277,-1.302,20373
6.278,-0.527,20373
6.279,0.380,20373
6.280,1.948,20373
6.281,2.260,20373
6.282,2.335,20373
6.283,2.107,20373
6.284,1.677,20067
6.285,1.103,20067
6.286,0.472,20067
6.287,-0.282,20067
6.288,-1.185,20067
6.289,-2.042,20067
6.290,-2.655,20067
6.291,-3.002,20067
6.292,-3.067,20067
6.293,-2.862,20067
6.294,-2.467,19826
6.295,-1.923,19826
6.296,-1.290,19826
6.297,-0.492,19826
6.298,0.438,19826
6.299,1.323,19826
6.300,2.433,19826
6.301,2.447,19826
6.302,2.217,19826
6.303,1.792,19639
6.304,1.183,19639
6.305,0.532,19639
6.306,-0.255,19639
6.307,-1.202,19639
6.308,-2.092,19639
6.309,-2.735,19639
6.310,-3.100,19639
6.311,-3.185,19639
6.312,-2.987,19639
6.313,-2.592,19469
6.314,-2.033,19469
6.315,-1.377,19469
6.316,-0.573,19469
6.317,0.378,19469
6.318,1.268,19469
6.319,1.958,19469
6.320,2.438,19469
6.321,2.230,19469
6.322,1.795,19317
6.323,1.192,19317
6.324,0.542,19317
6.325,-0.255,19317
6.326,-1.208,19317
6.327,-2.105,19317
6.328,-2.732,19317
6.329,-3.092,19317
6.330,-3.158,19317
6.331,-2.953,19317
6.332,-2.565,19159
6.333,-1.968,19159
6.334,-1.343,19159
6.335,-0.535,19159
6.336,0.417,19159
6.337,1.312,19159
6.338,1.982,19159
6.339,2.393,19159
6.340,2.183,19159
6.341,1.788,18983
6.342,1.183,18983
6.343,0.532,18983
6.344,-0.273,18983
6.345,-1.230,18983
6.346,-2.127,18983
6.347,-2.752,18983
6.348,-3.123,18983
6.349,-3.178,18983
6.350,-2.982,18983
6.351,-2.583,18839
6.352,-2.010,18839
6.353,-1.350,18839
6.354,-0.535,18839
6.355,0.417,18839
6.356,1.315,18839
6.357,1.980,18839
6.358,2.375,18839
6.359,2.438,18839
6.360,1.667,18726
6.361,0.460,18726
6.362,-0.268,18726
6.363,-1.202,18726
6.364,-2.080,18726
6.365,-2.672,18726
6.366,-3.018,18726
6.367,-3.072,18726
6.368,-2.857,18726
6.369,-2.462,18726
6.370,-1.927,18687
6.371,-1.252,18687
6.372,-0.492,18687
6.373,0.427,18687
6.374,1.260,18687
6.375,1.890,18687
6.376,2.237,18687
6.377,2.295,18687
6.378,2.058,18687
6.379,1.623,18687
6.380,0.302,18681
6.381,-1.360,18681
6.382,-2.065,18681
6.383,-2.652,18681
6.384,-2.953,18681
6.385,-2.987,18681
6.386,-2.772,18681
6.387,-2.368,18681
6.388,-1.817,18696
6.389,-1.170,18696
6.390,-0.415,18696
6.391,0.477,18696
6.392,1.310,18696
6.393,1.900,18696
6.394,2.237,18696
6.395,2.268,18696
6.396,2.018,18696
6.397,1.573,18696
6.398,1.018,18695
6.399,0.383,18695
6.400,-1.425,18695
6.401,-2.690,18695
6.402,-2.980,18695
6.403,-2.980,18695
6.404,-2.752,18695
6.405,-2.335,18695
6.406,-1.782,18643
6.407,-1.133,18643
6.408,-0.375,18643
6.409,0.517,18643
6.410,1.337,18643
6.411,1.913,18643
6.412,2.288,18643
6.413,2.272,18643
6.414,2.018,18643
6.415,1.573,18643
6.416,1.015,18443
6.417,0.378,18443
6.418,-0.388,18443
6.419,-1.290,18443
6.420,-2.730,18443
6.421,-2.953,18443
6.422,-2.978,18443
6.423,-2.748,18443
6.424,-2.333,18443
6.425,-1.778,18140
6.426,-1.130,18140
6.427,-0.370,18140
6.428,0.578,18140
6.429,1.337,18140
6.430,1.913,18140
6.431,2.237,18140
6.432,2.263,18140
6.433,1.998,18140
6.434,1.538,18140
6.435,0.985,17793
6.436,0.345,17793
6.437,-0.417,17793
6.438,-1.310,17793
6.439,-2.123,17793
6.440,-2.980,17793
6.441,-2.973,17793
6.442,-2.743,17793
6.443,-2.317,17793
6.444,-1.772,17485
6.445,-1.123,17485
6.446,-0.352,17485
6.447,0.540,17485
6.448,1.343,17485
6.449,1.907,17485
6.450,2.235,17485
6.451,2.257,17485
6.452,1.998,17485
6.453,1.558,17485
6.454,1.008,17228
6.455,0.357,17228
6.456,-0.410,17228
6.457,-1.302,17228
6.458,-2.098,17228
6.459,-2.647,17228
6.460,-2.928,17228
6.461,-2.268,17228
6.462,-1.778,17086
6.463,-1.133,17086
6.464,-0.367,17086
6.465,0.517,17086
6.466,1.315,17086
6.467,1.877,17086
6.468,2.197,17086
6.469,2.210,17086
6.470,1.958,17086
6.471,1.518,17086
6.472,0.958,16936
6.473,0.338,16936
6.474,-0.417,16936
6.475,-1.300,16936
6.476,-2.090,16936
6.477,-2.630,16936
6.478,-2.913,16936
6.479,-2.928,16936
6.480,-2.248,16936
6.481,-1.728,16814
6.482,-0.260,16814
6.483,0.512,16814
6.484,1.308,16814
6.485,1.867,16814
6.486,2.183,16814
6.487,2.188,16814
6.488,1.940,16814
6.489,1.498,16814
6.490,0.948,16607
6.491,0.333,16607
6.492,-0.420,16607
6.493,-1.305,16607
6.494,-2.087,16607
6.495,-2.612,16607
6.496,-2.890,16607
6.497,-2.893,16607
6.498,-2.658,16607
6.499,-2.252,16607
6.500,-0.993,16325
6.501,0.748,16325
6.502,1.347,16325
6.503,1.837,16325
6.504,2.140,16325
6.505,2.143,16325
6.506,1.877,16325
6.507,1.452,16325
6.508,0.902,15967
6.509,0.287,15967
6.510,-0.463,15967
6.511,-1.325,15967
6.512,-2.083,15967
6.513,-2.603,15967
6.514,-2.862,15967
6.515,-2.857,15967
6.516,-2.643,15967
6.517,-2.230,15967
6.518,-1.705,15640
6.519,-1.083,15640
6.520,0.652,15640
6.521,1.250,15640
6.522,1.820,15640
6.523,2.112,15640
6.524,2.103,15640
6.525,1.853,15640
6.526,1.433,15640
6.527,0.902,15382
6.528,0.273,15382
6.529,-0.430,15382
6.530,-1.260,15382
6.531,-2.015,15382
6.532,-2.530,15382
6.533,-2.808,15382
6.534,-2.808,15382
6.535,-2.587,15382
6.536,-2.185,15382
6.537,-1.663,15134
6.538,-1.062,15134
6.539,-0.333,15134
6.540,1.380,15134
6.541,1.802,15134
6.542,2.098,15134
6.543,2.092,15134
6.544,1.830,15134
6.545,1.413,15134
6.546,0.877,15042
6.547,0.270,15042
6.548,-0.458,15042
6.549,-1.302,15042
6.550,-2.042,15042
6.551,-2.540,15042
6.552,-2.812,15042
6.553,-2.803,15042
6.554,-2.587,15042
6.555,-2.190,15042
6.556,-1.670,15107
6.557,-1.067,15107
6.558,-0.333,15107
6.559,0.507,15107
6.560,1.833,15107
6.561,2.038,15107
6.562,2.030,15107
6.563,1.790,15107
6.564,1.380,15107
6.565,0.858,15251
6.566,0.253,15251
6.567,-0.482,15251
6.568,-1.327,15251
6.569,-2.058,15251
6.570,-2.572,15251
6.571,-2.822,15251
6.572,-2.822,15251
6.573,-2.592,15251
6.574,-2.192,15251
6.575,-1.665,15377
6.576,-1.062,15377
6.577,-0.338,15377
6.578,0.507,15377
6.579,1.235,15377
6.580,2.047,15377
6.581,1.992,15377
6.582,1.745,15377
6.583,1.305,15377
6.584,0.828,15330
6.585,0.225,15330
6.586,-0.512,15330
6.587,-1.367,15330
6.588,-2.100,15330
6.589,-2.592,15330
6.590,-2.842,15330
6.591,-2.817,15330
6.592,-2.578,15330
6.593,-2.172,15330
6.594,-1.647,15156
6.595,-1.032,15156
6.596,-0.287,15156
6.597,0.568,15156
6.598,1.300,15156
6.599,1.823,15156
6.600,2.053,15156
6.601,1.823,15156
6.602,1.397,15156
6.603,0.858,14791
6.604,0.242,14791
6.605,-0.512,14791
6.606,-1.363,14791
6.607,-2.098,14791
6.608,-2.592,14791
6.609,-2.833,14791
6.610,-2.817,14791
6.611,-2.583,14791
6.612,-2.167,14791
6.613,-1.645,14280
6.614,-1.018,14280
6.615,-0.268,14280
6.616,0.573,14280
6.617,1.325,14280
6.618,1.827,14280
6.619,2.098,14280
6.620,1.742,14280
6.621,1.390,14280
6.622,0.860,13745
6.623,0.247,13745
6.624,-0.522,13745
6.625,-1.353,13745
6.626,-2.107,13745
6.627,-2.583,13745
6.628,-2.828,13745
6.629,-2.815,13745
6.630,-2.578,13745
6.631,-2.163,13745
6.632,-1.633,13745
6.633,-1.022,13248
6.634,-0.250,13248
6.635,0.593,13248
