Czas(s),EKG_Surowe(mV),PPG_Surowe(ADC)
0.000,-1.407,3059
0.001,-1.768,3059
0.002,-2.053,3059
0.003,-2.167,3059
0.004,-2.123,3059
0.005,-1.930,3094
0.006,-1.625,3094
0.007,-1.232,3094
0.008,-0.743,3094
0.009,-0.168,3094
0.010,0.388,3094
0.011,0.823,3094
0.012,1.110,3094
0.013,1.228,3094
0.014,1.183,3094
0.015,0.930,3063
0.016,0.300,3063
0.017,-0.193,3063
0.018,-0.772,3063
0.019,-1.325,3063
0.020,-2.087,3063
0.021,-2.165,3063
0.022,-2.107,3063
0.023,-1.927,3038
0.024,-1.613,3038
0.025,-1.220,3038
0.026,-0.728,3038
0.027,-0.142,3038
0.028,0.393,3038
0.029,0.830,3038
0.030,1.113,3038
0.031,1.228,3038
0.032,1.173,3038
0.033,0.973,3067
0.034,0.662,3067
0.035,0.278,3067
0.036,-0.217,3067
0.037,-0.802,3067
0.038,-1.337,3067
0.039,-1.772,3067
0.040,-2.160,3067
0.041,-2.062,3076
0.042,-1.607,3076
0.043,-1.220,3076
0.044,-0.733,3076
0.045,-0.168,3076
0.046,0.385,3076
0.047,0.818,3076
0.048,1.097,3076
0.049,1.222,3076
0.050,1.167,3076
0.051,0.978,3088
0.052,0.667,3088
0.053,0.290,3088
0.054,-0.210,3088
0.055,-0.785,3088
0.056,-1.337,3088
0.057,-1.772,3088
0.058,-2.047,3088
0.059,-2.165,3088
0.060,-1.825,3076
0.061,-1.185,3076
0.062,-0.715,3076
0.063,-0.058,3076
0.064,0.393,3076
0.065,0.797,3076
0.066,1.093,3076
0.067,1.212,3076
0.068,1.153,3076
0.069,0.958,3082
0.070,0.608,3082
0.071,0.263,3082
0.072,-0.223,3082
0.073,-0.815,3082
0.074,-1.367,3082
0.075,-1.802,3082
0.076,-2.083,3082
0.077,-2.188,3082
0.078,-2.132,3082
0.079,-1.933,3053
0.080,-1.153,3053
0.081,-0.713,3053
0.082,-0.142,3053
0.083,0.400,3053
0.084,0.833,3053
0.085,1.115,3053
0.086,1.225,3053
0.087,1.173,3053
0.088,0.958,3088
0.089,0.657,3088
0.090,0.263,3088
0.091,-0.282,3088
0.092,-0.870,3088
0.093,-1.367,3088
0.094,-1.802,3088
0.095,-2.087,3088
0.096,-2.188,3088
0.097,-2.138,3088
0.098,-1.927,3086
0.099,-1.613,3086
0.100,-0.623,3086
0.101,-0.043,3086
0.102,0.420,3086
0.103,0.828,3086
0.104,1.133,3086
0.105,1.250,3086
0.106,1.208,3086
0.107,1.020,3051
0.108,0.710,3051
0.109,0.307,3051
0.110,-0.217,3051
0.111,-0.848,3051
0.112,-1.343,3051
0.113,-1.788,3051
0.114,-2.083,3051
0.115,-2.183,3051
0.116,-2.123,3051
0.117,-1.930,3091
0.118,-1.620,3091
0.119,-1.228,3091
0.120,-0.072,3091
0.121,0.390,3091
0.122,0.828,3091
0.123,1.110,3091
0.124,1.228,3091
0.125,1.177,3091
0.126,0.960,3093
0.127,0.660,3093
0.128,0.278,3093
0.129,-0.228,3093
0.130,-0.810,3093
0.131,-1.347,3093
0.132,-1.785,3093
0.133,-2.058,3093
0.134,-2.167,3093
0.135,-2.110,3093
0.136,-1.907,3100
0.137,-1.607,3100
0.138,-1.215,3100
0.139,-0.713,3100
0.140,0.477,3100
0.141,0.845,3100
0.142,1.113,3100
0.143,1.230,3100
0.144,1.177,3100
0.145,0.985,3076
0.146,0.667,3076
0.147,0.287,3076
0.148,-0.207,3076
0.149,-0.782,3076
0.150,-1.337,3076
0.151,-1.775,3076
0.152,-2.053,3076
0.153,-2.165,3076
0.154,-2.103,3076
0.155,-1.893,3081
0.156,-1.577,3081
0.157,-1.195,3081
0.158,-0.667,3081
0.159,-0.133,3081
0.160,0.907,3081
0.161,1.232,3081
0.162,1.177,3081
0.163,0.917,3087
0.164,0.223,3087
0.165,-0.228,3087
0.166,-0.815,3087
0.167,-1.365,3087
0.168,-1.790,3087
0.169,-2.083,3087
0.170,-2.183,3087
0.171,-2.127,3087
0.172,-1.930,3056
0.173,-1.623,3056
0.174,-1.230,3056
0.175,-0.740,3056
0.176,-0.172,3056
0.177,0.388,3056
0.178,0.823,3056
0.179,1.103,3056
0.180,1.140,3056
0.181,0.973,3086
0.182,0.660,3086
0.183,0.273,3086
0.184,-0.228,3086
0.185,-0.807,3086
0.186,-1.353,3086
0.187,-1.785,3086
0.188,-2.062,3086
0.189,-2.180,3086
0.190,-2.120,3086
0.191,-1.923,3095
0.192,-1.613,3095
0.193,-1.218,3095
0.194,-0.713,3095
0.195,-0.145,3095
0.196,0.398,3095
0.197,0.830,3095
0.198,1.107,3095
0.199,1.230,3095
0.200,0.943,3096
0.201,0.300,3096
0.202,-0.200,3096
0.203,-0.772,3096
0.204,-1.333,3096
0.205,-1.772,3096
0.206,-2.060,3096
0.207,-2.175,3096
0.208,-2.123,3096
0.209,-1.925,3068
0.210,-1.620,3068
0.211,-1.220,3068
0.212,-0.730,3068
0.213,-0.168,3068
0.214,0.388,3068
0.215,0.818,3068
0.216,1.113,3068
0.217,1.232,3068
0.218,1.190,3068
0.219,1.008,3068
0.220,0.235,3077
0.221,-0.828,3077
0.222,-1.312,3077
0.223,-1.738,3077
0.224,-2.022,3077
0.225,-2.138,3077
0.226,-2.083,3077
0.227,-1.883,3077
0.228,-1.573,3088
0.229,-1.183,3088
0.230,-0.688,3088
0.231,-0.122,3088
0.232,0.427,3088
0.233,0.853,3088
0.234,1.117,3088
0.235,1.228,3088
0.236,1.177,3088
0.237,0.978,3088
0.238,0.672,3075
0.239,0.290,3075
0.240,-0.887,3075
0.241,-1.340,3075
0.242,-1.778,3075
0.243,-2.062,3075
0.244,-2.172,3075
0.245,-2.123,3075
0.246,-1.923,3075
0.247,-1.613,3035
0.248,-1.212,3035
0.249,-0.723,3035
0.250,-0.147,3035
0.251,0.435,3035
0.252,0.843,3035
0.253,1.137,3035
0.254,1.245,3035
0.255,1.188,3035
0.256,0.990,3035
0.257,0.677,3069
0.258,0.290,3069
0.259,-0.203,3069
0.260,-1.423,3069
0.261,-1.780,3069
0.262,-2.058,3069
0.263,-2.170,3069
0.264,-2.112,3069
0.265,-1.923,3069
0.266,-1.617,3078
0.267,-1.210,3078
0.268,-0.713,3078
0.269,-0.133,3078
0.270,0.412,3078
0.271,0.850,3078
0.272,1.137,3078
0.273,1.248,3078
0.274,1.180,3078
0.275,0.980,3078
0.276,0.672,3078
0.277,0.275,3078
0.278,-0.212,3078
0.279,-0.782,3078
0.280,-1.817,3078
0.281,-2.042,3078
0.282,-2.150,3078
0.283,-2.098,3078
0.284,-1.893,3078
0.285,-1.583,3057
0.286,-1.205,3057
0.287,-0.713,3057
0.288,-0.140,3057
0.289,0.398,3057
0.290,0.823,3057
0.291,1.097,3057
0.292,1.192,3057
0.293,1.137,3057
0.294,0.927,3057
0.295,0.615,3068
0.296,0.228,3068
0.297,-0.263,3068
0.298,-0.848,3068
0.299,-1.380,3068
0.300,-2.112,3068
0.301,-2.183,3068
0.302,-2.123,3068
0.303,-1.923,3068
0.304,-1.615,3072
0.305,-1.212,3072
0.306,-0.725,3072
0.307,-0.147,3072
0.308,0.393,3072
0.309,0.838,3072
0.310,1.117,3072
0.311,1.230,3072
0.312,1.177,3072
0.313,0.980,3072
0.314,0.675,3090
0.315,0.280,3090
0.316,-0.215,3090
0.317,-0.807,3090
0.318,-1.347,3090
0.319,-1.788,3090
0.320,-2.180,3090
0.321,-2.125,3090
0.322,-1.933,3090
0.323,-1.623,3085
0.324,-1.218,3085
0.325,-0.728,3085
0.326,-0.147,3085
0.327,0.410,3085
0.328,0.848,3085
0.329,1.133,3085
0.330,1.238,3085
0.331,1.183,3085
0.332,0.980,3085
0.333,0.667,3083
0.334,0.268,3083
0.335,-0.233,3083
0.336,-0.820,3083
0.337,-1.373,3083
0.338,-1.810,3083
0.339,-2.098,3083
0.340,-2.107,3083
0.341,-1.927,3083
0.342,-1.617,3086
0.343,-1.210,3086
0.344,-0.708,3086
0.345,-0.133,3086
0.346,0.412,3086
0.347,0.845,3086
0.348,1.107,3086
0.349,1.222,3086
0.350,1.157,3086
0.351,0.948,3086
0.352,0.637,3102
0.353,0.235,3102
0.354,-0.253,3102
0.355,-0.865,3102
0.356,-1.387,3102
0.357,-1.812,3102
0.358,-2.095,3102
0.359,-2.190,3102
0.360,-1.883,3102
0.361,-1.192,3098
0.362,-0.713,3098
0.363,-0.163,3098
0.364,0.388,3098
0.365,0.823,3098
0.366,1.107,3098
0.367,1.218,3098
0.368,1.167,3098
0.369,0.978,3098
0.370,0.672,3064
0.371,0.287,3064
0.372,-0.212,3064
0.373,-0.785,3064
0.374,-1.340,3064
0.375,-1.778,3064
0.376,-2.047,3064
0.377,-2.163,3064
0.378,-2.100,3064
0.379,-1.893,3064
0.380,-1.137,3102
0.381,-0.142,3102
0.382,0.383,3102
0.383,0.818,3102
0.384,1.093,3102
0.385,1.208,3102
0.386,1.147,3102
0.387,0.948,3102
0.388,0.662,3089
0.389,0.268,3089
0.390,-0.225,3089
0.391,-0.807,3089
0.392,-1.347,3089
0.393,-1.782,3089
0.394,-2.058,3089
0.395,-2.172,3089
0.396,-2.112,3089
0.397,-1.907,3089
0.398,-1.607,3099
0.399,-1.210,3099
0.400,-0.052,3099
0.401,0.398,3099
0.402,0.833,3099
0.403,1.113,3099
0.404,1.232,3099
0.405,1.175,3099
0.406,0.978,3099
0.407,0.670,3092
0.408,0.273,3092
0.409,-0.228,3092
0.410,-0.812,3092
0.411,-1.350,3092
0.412,-1.788,3092
0.413,-2.060,3092
0.414,-2.172,3092
0.415,-2.110,3092
0.416,-1.910,3092
0.417,-1.613,3090
0.418,-1.210,3090
0.419,-0.708,3090
0.420,0.468,3090
0.421,0.828,3090
0.422,1.103,3090
0.423,1.220,3090
0.424,1.173,3090
0.425,0.983,3090
0.426,0.670,3092
0.427,0.270,3092
0.428,-0.223,3092
0.429,-0.805,3092
0.430,-1.345,3092
0.431,-1.778,3092
0.432,-2.047,3092
0.433,-2.163,3092
0.434,-2.103,3092
0.435,-1.893,3092
0.436,-1.600,3092
0.437,-1.202,3092
0.438,-0.708,3092
0.439,-0.142,3092
0.440,0.877,3092
0.441,1.097,3092
0.442,1.210,3092
0.443,1.147,3092
0.444,0.938,3092
0.445,0.652,3086
0.446,0.253,3086
0.447,-0.247,3086
0.448,-0.823,3086
0.449,-1.367,3086
0.450,-1.808,3086
0.451,-2.062,3086
0.452,-2.172,3086
0.453,-2.105,3086
0.454,-1.897,3086
0.455,-1.583,3081
0.456,-1.183,3081
0.457,-0.690,3081
0.458,-0.113,3081
0.459,0.430,3081
0.460,1.183,3081
0.461,1.258,3081
0.462,1.195,3081
0.463,1.005,3081
0.464,0.698,3092
0.465,0.297,3092
0.466,-0.205,3092
0.467,-0.782,3092
0.468,-1.337,3092
0.469,-1.775,3092
0.470,-2.053,3092
0.471,-2.172,3092
0.472,-2.112,3092
0.473,-1.907,3092
0.474,-1.610,3081
0.475,-1.222,3081
0.476,-0.733,3081
0.477,-0.150,3081
0.478,0.393,3081
0.479,0.828,3081
0.480,1.230,3081
0.481,1.177,3081
0.482,0.988,3081
0.483,0.677,3081
0.484,0.297,3088
0.485,-0.223,3088
0.486,-0.802,3088
0.487,-1.347,3088
0.488,-1.782,3088
0.489,-2.062,3088
0.490,-2.167,3088
0.491,-2.105,3088
0.492,-1.897,3088
0.493,-1.605,3088
0.494,-1.212,3074
0.495,-0.708,3074
0.496,-0.147,3074
0.497,0.400,3074
0.498,0.838,3074
0.499,1.133,3074
0.500,1.153,3074
0.501,0.983,3074
0.502,0.672,3074
0.503,0.273,3063
0.504,-0.247,3063
0.505,-0.818,3063
0.506,-1.363,3063
0.507,-1.802,3063
0.508,-2.085,3063
0.509,-2.188,3063
0.510,-2.132,3063
0.511,-1.930,3063
0.512,-1.617,3063
0.513,-1.222,3077
0.514,-0.723,3077
0.515,-0.145,3077
0.516,0.410,3077
0.517,0.843,3077
0.518,1.120,3077
0.519,1.232,3077
0.520,0.938,3077
0.521,0.595,3072
0.522,-0.253,3072
0.523,-0.785,3072
0.524,-1.333,3072
0.525,-1.778,3072
0.526,-2.058,3072
0.527,-2.170,3072
0.528,-2.123,3072
0.529,-1.933,3072
0.530,-1.633,3072
0.531,-1.232,3093
0.532,-0.733,3093
0.533,-0.170,3093
0.534,0.390,3093
0.535,0.825,3093
0.536,1.100,3093
0.537,1.220,3093
0.538,1.173,3093
0.539,0.983,3093
0.540,0.190,3069
0.541,-0.802,3069
0.542,-1.327,3069
0.543,-1.748,3069
0.544,-2.033,3069
0.545,-2.152,3069
0.546,-2.092,3069
0.547,-1.883,3069
0.548,-1.580,3069
0.549,-1.188,3092
0.550,-0.682,3092
0.551,-0.122,3092
0.552,0.417,3092
0.553,0.848,3092
0.554,1.117,3092
0.555,1.228,3092
0.556,1.157,3092
0.557,0.953,3092
0.558,0.657,3092
0.559,0.268,3061
0.560,-0.910,3061
0.561,-1.370,3061
0.562,-1.808,3061
0.563,-2.087,3061
0.564,-2.188,3061
0.565,-2.123,3061
0.566,-1.927,3061
0.567,-1.617,3061
0.568,-1.215,3076
0.569,-0.708,3076
0.570,-0.147,3076
0.571,0.388,3076
0.572,0.825,3076
0.573,1.107,3076
0.574,1.222,3076
0.575,1.167,3076
0.576,0.973,3076
0.577,0.665,3076
0.578,0.280,3076
0.579,-0.223,3076
0.580,-1.417,3076
0.581,-1.778,3076
0.582,-2.055,3076
0.583,-2.175,3076
0.584,-2.110,3076
0.585,-1.927,3076
0.586,-1.620,3076
0.587,-1.228,3065
0.588,-0.713,3065
0.589,-0.140,3065
0.590,0.417,3065
0.591,0.848,3065
0.592,1.137,3065
0.593,1.248,3065
0.594,1.188,3065
0.595,0.993,3065
0.596,0.695,3065
0.597,0.302,3077
0.598,-0.212,3077
0.599,-0.782,3077
0.600,-1.843,3077
0.601,-2.062,3077
0.602,-2.178,3077
0.603,-2.107,3077
0.604,-1.907,3077
0.605,-1.610,3077
0.606,-1.212,3085
0.607,-0.703,3085
0.608,-0.147,3085
0.609,0.393,3085
0.610,0.815,3085
0.611,1.087,3085
0.612,1.183,3085
0.613,1.113,3085
0.614,0.917,3085
0.615,0.610,3085
0.616,0.228,3100
0.617,-0.287,3100
0.618,-0.860,3100
0.619,-1.403,3100
0.620,-2.130,3100
0.621,-2.192,3100
0.622,-2.135,3100
0.623,-1.935,3100
0.624,-1.625,3100
0.625,-1.220,3065
0.626,-0.708,3065
0.627,-0.138,3065
0.628,0.400,3065
0.629,0.833,3065
0.630,1.107,3065
0.631,1.222,3065
0.632,1.163,3065
0.633,0.955,3065
0.634,0.657,3065
0.635,0.270,3104
0.636,-0.250,3104
0.637,-0.823,3104
0.638,-1.403,3104
0.639,-1.808,3104
0.640,-2.178,3104
0.641,-2.120,3104
0.642,-1.925,3104
0.643,-1.607,3104
0.644,-1.222,3063
0.645,-0.713,3063
0.646,-0.177,3063
0.647,0.378,3063
0.648,0.797,3063
0.649,1.087,3063
0.650,1.208,3063
0.651,1.153,3063
0.652,0.955,3063
0.653,0.657,3063
0.654,0.268,3093
0.655,-0.245,3093
0.656,-0.820,3093
0.657,-1.363,3093
0.658,-1.788,3093
0.659,-2.062,3093
0.660,-2.083,3093
0.661,-1.903,3093
0.662,-1.607,3093
0.663,-1.212,3104
0.664,-0.703,3104
0.665,-0.145,3104
0.666,0.388,3104
0.667,0.818,3104
0.668,1.077,3104
0.669,1.192,3104
0.670,1.137,3104
0.671,0.935,3104
0.672,0.632,3104
0.673,0.253,3094
0.674,-0.265,3094
0.675,-0.828,3094
0.676,-1.373,3094
0.677,-1.788,3094
0.678,-2.058,3094
0.679,-2.150,3094
0.680,-1.843,3094
0.681,-1.573,3094
0.682,-1.180,3084
0.683,-0.688,3084
0.684,-0.138,3084
0.685,0.410,3084
0.686,0.828,3084
0.687,1.107,3084
0.688,1.220,3084
0.689,1.167,3084
0.690,0.978,3084
0.691,0.667,3084
0.692,0.273,3084
0.693,-0.253,3084
0.694,-0.823,3084
0.695,-1.367,3084
0.696,-1.782,3084
0.697,-2.058,3084
0.698,-2.167,3084
0.699,-2.098,3084
0.700,-1.528,3084
0.701,-1.107,3092
0.702,-0.060,3092
0.703,0.450,3092
0.704,0.868,3092
0.705,1.117,3092
0.706,1.228,3092
0.707,1.155,3092
0.708,0.948,3092
0.709,0.660,3092
0.710,0.260,3071
0.711,-0.263,3071
0.712,-0.828,3071
0.713,-1.367,3071
0.714,-1.788,3071
0.715,-2.060,3071
0.716,-2.167,3071
0.717,-2.100,3071
0.718,-1.893,3071
0.719,-1.583,3071
0.720,-0.620,3062
0.721,0.412,3062
0.722,0.835,3062
0.723,1.110,3062
0.724,1.228,3062
0.725,1.173,3062
0.726,0.978,3062
0.727,0.667,3062
0.728,0.275,3097
0.729,-0.233,3097
0.730,-0.815,3097
0.731,-1.363,3097
0.732,-1.782,3097
0.733,-2.062,3097
0.734,-2.163,3097
0.735,-2.092,3097
0.736,-1.877,3097
0.737,-1.567,3097
0.738,-1.177,3080
0.739,-0.660,3080
0.740,0.527,3080
0.741,0.863,3080
0.742,1.143,3080
0.743,1.232,3080
0.744,1.180,3080
0.745,0.958,3080
0.746,0.662,3080
0.747,0.268,3094
0.748,-0.253,3094
0.749,-0.830,3094
0.750,-1.377,3094
0.751,-1.812,3094
0.752,-2.090,3094
0.753,-2.188,3094
0.754,-2.132,3094
0.755,-1.933,3094
0.756,-1.620,3094
0.757,-1.212,3094
0.758,-0.713,3081
0.759,-0.125,3081
0.760,0.897,3081
0.761,1.115,3081
0.762,1.232,3081
0.763,1.177,3081
0.764,0.988,3081
0.765,0.688,3081
0.766,0.300,3081
0.767,-0.207,3073
0.768,-0.807,3073
0.769,-1.345,3073
0.770,-1.772,3073
0.771,-2.053,3073
0.772,-2.163,3073
0.773,-2.095,3073
0.774,-1.887,3073
0.775,-1.577,3073
0.776,-1.190,3073
0.777,-0.698,3081
0.778,-0.115,3081
0.779,0.412,3081
0.780,1.145,3081
0.781,1.212,3081
0.782,1.157,3081
0.783,0.948,3081
0.784,0.660,3081
0.785,0.268,3081
0.786,-0.245,3077
0.787,-0.833,3077
0.788,-1.377,3077
0.789,-1.808,3077
0.790,-2.087,3077
0.791,-2.180,3077
0.792,-2.112,3077
0.793,-1.905,3077
0.794,-1.607,3077
0.795,-1.218,3077
0.796,-0.723,3086
0.797,-0.142,3086
0.798,0.393,3086
0.799,0.818,3086
0.800,1.188,3086
0.801,1.113,3086
0.802,0.912,3086
0.803,0.613,3086
0.804,0.233,3086
0.805,-0.263,3074
0.806,-0.853,3074
0.807,-1.373,3074
0.808,-1.790,3074
0.809,-2.060,3074
0.810,-2.163,3074
0.811,-2.100,3074
0.812,-1.893,3074
0.813,-1.580,3074
0.814,-1.188,3074
0.815,-0.688,3070
0.816,-0.102,3070
0.817,0.422,3070
0.818,0.853,3070
0.819,1.117,3070
0.820,1.147,3070
0.821,0.975,3070
0.822,0.662,3070
0.823,0.275,3070
0.824,-0.242,3078
0.825,-0.843,3078
0.826,-1.383,3078
0.827,-1.812,3078
0.828,-2.098,3078
0.829,-2.190,3078
0.830,-2.138,3078
0.831,-1.923,3078
0.832,-1.617,3078
0.833,-1.220,3078
0.834,-0.713,3078
0.835,-0.133,3078
0.836,0.410,3078
0.837,0.850,3078
0.838,1.107,3078
0.839,1.222,3078
0.840,0.917,3078
0.841,0.670,3078
0.842,0.278,3078
0.843,-0.228,3085
0.844,-0.828,3085
0.845,-1.353,3085
0.846,-1.782,3085
0.847,-2.058,3085
0.848,-2.163,3085
0.849,-2.107,3085
0.850,-1.903,3085
0.851,-1.607,3085
0.852,-1.212,3085
0.853,-0.710,3076
0.854,-0.133,3076
0.855,0.393,3076
0.856,0.823,3076
0.857,1.107,3076
0.858,1.218,3076
0.859,1.153,3076
0.860,0.588,3076
0.861,0.263,3076
0.862,-0.247,3068
0.863,-0.845,3068
0.864,-1.367,3068
0.865,-1.782,3068
0.866,-2.053,3068
0.867,-2.145,3068
0.868,-2.087,3068
0.869,-1.873,3068
0.870,-1.573,3068
0.871,-1.188,3068
0.872,-0.682,3067
0.873,-0.100,3067
0.874,0.427,3067
0.875,0.843,3067
0.876,1.107,3067
0.877,1.218,3067
0.878,1.147,3067
0.879,0.943,3067
0.880,0.177,3067
0.881,-0.263,3082
0.882,-0.853,3082
0.883,-1.387,3082
0.884,-1.812,3082
0.885,-2.083,3082
0.886,-2.175,3082
0.887,-2.107,3082
0.888,-1.900,3082
0.889,-1.580,3082
0.890,-1.200,3082
0.891,-0.698,3057
0.892,-0.115,3057
0.893,0.417,3057
0.894,0.853,3057
0.895,1.137,3057
0.896,1.235,3057
0.897,1.180,3057
0.898,0.983,3057
0.899,0.675,3057
0.900,-0.328,3089
0.901,-1.407,3089
0.902,-1.788,3089
0.903,-2.058,3089
0.904,-2.170,3089
0.905,-2.112,3089
0.906,-1.903,3089
0.907,-1.607,3089
0.908,-1.212,3089
0.909,-0.708,3091
0.910,-0.133,3091
0.911,0.412,3091
0.912,0.833,3091
0.913,1.105,3091
0.914,1.215,3091
0.915,1.143,3091
0.916,0.943,3091
0.917,0.632,3091
0.918,0.250,3091
0.919,-0.260,3107
0.920,-1.462,3107
0.921,-1.873,3107
0.922,-2.105,3107
0.923,-2.172,3107
0.924,-2.103,3107
0.925,-1.893,3107
0.926,-1.570,3107
0.927,-1.170,3107
0.928,-0.660,3091
0.929,-0.092,3091
0.930,0.432,3091
0.931,0.850,3091
0.932,1.113,3091
0.933,1.218,3091
0.934,1.147,3091
0.935,0.940,3091
0.936,0.627,3091
0.937,0.247,3091
0.938,-0.260,3104
0.939,-0.850,3104
0.940,-1.860,3104
0.941,-2.090,3104
0.942,-2.188,3104
0.943,-2.127,3104
0.944,-1.927,3104
0.945,-1.617,3104
0.946,-1.212,3104
0.947,-0.708,3088
0.948,-0.135,3088
0.949,0.388,3088
0.950,0.820,3088
0.951,1.090,3088
0.952,1.192,3088
0.953,1.133,3088
0.954,0.858,3088
0.955,0.600,3088
0.956,0.225,3088
0.957,-0.273,3080
0.958,-0.865,3080
0.959,-1.390,3080
0.960,-2.105,3080
0.961,-2.167,3080
0.962,-2.098,3080
0.963,-1.885,3080
0.964,-1.573,3080
0.965,-1.177,3080
0.966,-0.672,3081
0.967,-0.092,3081
0.968,0.432,3081
0.969,0.848,3081
0.970,1.110,3081
0.971,1.212,3081
0.972,1.145,3081
0.973,0.927,3081
0.974,0.618,3081
0.975,0.233,3081
0.976,-0.273,3093
0.977,-0.868,3093
0.978,-1.407,3093
0.979,-1.820,3093
0.980,-2.183,3093
0.981,-2.120,3093
0.982,-1.923,3093
0.983,-1.613,3093
0.984,-1.208,3093
0.985,-0.703,3091
0.986,-0.135,3091
0.987,0.398,3091
0.988,0.823,3091
0.989,1.095,3091
0.990,1.205,3091
0.991,1.143,3091
0.992,0.932,3091
0.993,0.623,3091
0.994,0.247,3091
0.995,-0.258,3055
0.996,-0.850,3055
0.997,-1.383,3055
0.998,-1.808,3055
0.999,-2.083,3055
1.000,-2.087,3055
1.001,-1.897,3055
1.002,-1.603,3055
1.003,-1.202,3055
1.004,-0.705,3092
1.005,-0.122,3092
1.006,0.417,3092
1.007,0.833,3092
1.008,1.107,3092
1.009,1.210,3092
1.010,1.143,3092
1.011,0.932,3092
1.012,0.618,3092
1.013,0.237,3092
1.014,-0.273,3086
1.015,-0.860,3086
1.016,-1.387,3086
1.017,-1.815,3086
1.018,-2.092,3086
1.019,-2.185,3086
1.020,-1.860,3086
1.021,-1.605,3086
1.022,-1.192,3086
1.023,-0.693,3088
1.024,-0.060,3088
1.025,0.435,3088
1.026,0.833,3088
1.027,1.103,3088
1.028,1.208,3088
1.029,1.150,3088
1.030,0.927,3088
1.031,0.623,3088
1.032,0.253,3088
1.033,-0.253,3088
1.034,-0.840,3086
1.035,-1.380,3086
1.036,-1.812,3086
1.037,-2.085,3086
1.038,-2.183,3086
1.039,-2.123,3086
1.040,-1.542,3086
1.041,-1.205,3086
1.042,-0.698,3086
1.043,-0.128,3083
1.044,0.417,3083
1.045,0.838,3083
1.046,1.105,3083
1.047,1.212,3083
1.048,1.143,3083
1.049,0.930,3083
1.050,0.623,3083
1.051,0.237,3083
1.052,-0.273,3083
1.053,-0.853,3074
1.054,-1.393,3074
1.055,-1.817,3074
1.056,-2.092,3074
1.057,-2.188,3074
1.058,-2.132,3074
1.059,-1.930,3074
1.060,-1.145,3074
1.061,-0.593,3079
1.062,0.458,3079
1.063,0.838,3079
1.064,1.115,3079
1.065,1.225,3079
1.066,1.170,3079
1.067,0.978,3079
1.068,0.662,3079
1.069,0.278,3079
1.070,-0.223,3079
1.071,-0.802,3082
1.072,-1.353,3082
1.073,-1.772,3082
1.074,-2.055,3082
1.075,-2.163,3082
1.076,-2.092,3082
1.077,-1.895,3082
1.078,-1.583,3082
1.079,-1.202,3082
1.080,-0.043,3062
1.081,0.828,3062
1.082,1.097,3062
1.083,1.190,3062
1.084,1.137,3062
1.085,0.920,3062
1.086,0.613,3062
1.087,0.233,3062
1.088,-0.273,3062
1.089,-0.860,3082
1.090,-1.413,3082
1.091,-1.827,3082
1.092,-2.100,3082
1.093,-2.188,3082
1.094,-2.123,3082
1.095,-1.903,3082
1.096,-1.603,3082
1.097,-1.202,3082
1.098,-0.685,3082
1.099,-0.128,3066
1.100,0.877,3066
1.101,1.150,3066
1.102,1.218,3066
1.103,1.147,3066
1.104,0.940,3066
1.105,0.627,3066
1.106,0.250,3066
1.107,-0.268,3066
1.108,-0.853,3086
1.109,-1.403,3086
1.110,-1.812,3086
1.111,-2.090,3086
1.112,-2.178,3086
1.113,-2.123,3086
1.114,-1.907,3086
1.115,-1.607,3086
1.116,-1.202,3086
1.117,-0.703,3086
1.118,-0.128,3089
1.119,0.420,3089
1.120,1.153,3089
1.121,1.222,3089
1.122,1.153,3089
1.123,0.943,3089
1.124,0.632,3089
1.125,0.250,3089
1.126,-0.275,3089
1.127,-0.853,3083
1.128,-1.403,3083
1.129,-1.810,3083
1.130,-2.090,3083
1.131,-2.178,3083
1.132,-2.103,3083
1.133,-1.893,3083
1.134,-1.577,3083
1.135,-1.190,3083
1.136,-0.695,3083
1.137,-0.128,3074
1.138,0.417,3074
1.139,0.830,3074
1.140,1.202,3074
1.141,1.137,3074
1.142,0.932,3074
1.143,0.623,3074
1.144,0.247,3074
1.145,-0.255,3074
1.146,-0.848,3084
1.147,-1.395,3084
1.148,-1.817,3084
1.149,-2.095,3084
1.150,-2.203,3084
1.151,-2.138,3084
1.152,-1.942,3084
1.153,-1.625,3084
1.154,-1.228,3084
1.155,-0.710,3084
1.156,-0.125,3109
1.157,0.425,3109
1.158,0.848,3109
1.159,1.117,3109
1.160,1.135,3109
1.161,0.897,3109
1.162,0.623,3109
1.163,0.260,3109
1.164,-0.247,3109
1.165,-0.818,3110
1.166,-1.385,3110
1.167,-1.808,3110
1.168,-2.083,3110
1.169,-2.167,3110
1.170,-2.100,3110
1.171,-1.890,3110
1.172,-1.583,3110
1.173,-1.188,3110
1.174,-0.690,3110
1.175,-0.113,3107
1.176,0.425,3107
1.177,0.848,3107
1.178,1.113,3107
1.179,1.218,3107
1.180,0.890,3107
1.181,0.623,3107
1.182,0.247,3107
1.183,-0.263,3107
1.184,-0.848,3109
1.185,-1.390,3109
1.186,-1.805,3109
1.187,-2.083,3109
1.188,-2.170,3109
1.189,-2.103,3109
1.190,-1.883,3109
1.191,-1.573,3109
1.192,-1.175,3109
1.193,-0.667,3109
1.194,-0.098,3106
1.195,0.448,3106
1.196,0.860,3106
1.197,1.133,3106
1.198,1.218,3106
1.199,1.143,3106
1.200,0.568,3106
1.201,0.128,3106
1.202,-0.287,3106
1.203,-0.860,3111
1.204,-1.410,3111
1.205,-1.817,3111
1.206,-2.092,3111
1.207,-2.175,3111
1.208,-2.110,3111
1.209,-1.897,3111
1.210,-1.583,3111
1.211,-1.190,3111
1.212,-0.698,3111
1.213,-0.115,3093
1.214,0.427,3093
1.215,0.850,3093
1.216,1.110,3093
1.217,1.215,3093
1.218,1.137,3093
1.219,0.938,3093
1.220,0.180,3093
1.221,-0.362,3093
1.222,-0.848,3088
1.223,-1.375,3088
1.224,-1.865,3088
1.225,-2.058,3088
1.226,-2.167,3088
1.227,-2.103,3088
1.228,-1.897,3088
1.229,-1.603,3088
1.230,-1.208,3088
1.231,-0.708,3088
1.232,-0.133,3078
1.233,0.407,3078
1.234,0.820,3078
1.235,1.090,3078
1.236,1.188,3078
1.237,1.135,3078
1.238,0.935,3078
1.239,0.627,3078
1.240,-0.352,3078
1.241,-1.413,3104
1.242,-1.808,3104
1.243,-2.058,3104
1.244,-2.163,3104
1.245,-2.092,3104
1.246,-1.885,3104
1.247,-1.570,3104
1.248,-1.177,3104
1.249,-0.667,3104
1.250,-0.102,3078
1.251,0.427,3078
1.252,0.838,3078
1.253,1.107,3078
1.254,1.192,3078
1.255,1.133,3078
1.256,0.917,3078
1.257,0.618,3078
1.258,0.237,3078
1.259,-0.268,3078
1.260,-1.488,3089
1.261,-2.100,3089
1.262,-2.188,3089
1.263,-2.125,3089
1.264,-1.907,3089
1.265,-1.605,3089
1.266,-1.208,3089
1.267,-0.698,3089
1.268,-0.107,3094
1.269,0.427,3094
1.270,0.848,3094
1.271,1.113,3094
1.272,1.210,3094
1.273,1.137,3094
1.274,0.930,3094
1.275,0.618,3094
1.276,0.230,3094
1.277,-0.287,3094
1.278,-0.868,3086
1.279,-1.417,3086
1.280,-2.138,3086
1.281,-2.190,3086
1.282,-2.127,3086
1.283,-1.907,3086
1.284,-1.545,3086
1.285,-1.202,3086
1.286,-0.700,3086
1.287,-0.110,3082
1.288,0.432,3082
1.289,0.848,3082
1.290,1.110,3082
1.291,1.218,3082
1.292,1.147,3082
1.293,0.938,3082
1.294,0.623,3082
1.295,0.237,3082
1.296,-0.263,3082
1.297,-0.843,3086
1.298,-1.385,3086
1.299,-1.792,3086
1.300,-2.163,3086
1.301,-2.100,3086
1.302,-1.887,3086
1.303,-1.583,3086
1.304,-1.185,3086
1.305,-0.682,3086
1.306,-0.100,3086
1.307,0.432,3067
1.308,0.863,3067
1.309,1.115,3067
1.310,1.208,3067
1.311,1.137,3067
1.312,0.917,3067
1.313,0.610,3067
1.314,0.205,3067
1.315,-0.290,3067
1.316,-0.868,3067
1.317,-1.417,3078
1.318,-1.843,3078
1.319,-2.107,3078
1.320,-2.092,3078
1.321,-1.895,3078
1.322,-1.575,3078
1.323,-1.177,3078
1.324,-0.665,3078
1.325,-0.095,3078
1.326,0.438,3101
1.327,0.868,3101
1.328,1.117,3101
1.329,1.212,3101
1.330,1.143,3101
1.331,0.927,3101
1.332,0.618,3101
1.333,0.228,3101
1.334,-0.285,3101
1.335,-0.858,3101
1.336,-1.393,3080
1.337,-1.823,3080
1.338,-2.092,3080
1.339,-2.178,3080
1.340,-1.853,3080
1.341,-1.583,3080
1.342,-1.183,3080
1.343,-0.677,3080
1.344,-0.105,3080
1.345,0.425,3070
1.346,0.858,3070
1.347,1.135,3070
1.348,1.228,3070
1.349,1.163,3070
1.350,0.948,3070
1.351,0.637,3070
1.352,0.258,3070
1.353,-0.247,3070
1.354,-0.830,3070
1.355,-1.373,3076
1.356,-1.802,3076
1.357,-2.053,3076
1.358,-2.147,3076
1.359,-2.087,3076
1.360,-1.525,3076
1.361,-1.183,3076
1.362,-0.672,3076
1.363,-0.092,3076
1.364,0.450,3051
1.365,0.873,3051
1.366,1.145,3051
1.367,1.238,3051
1.368,1.167,3051
1.369,0.953,3051
1.370,0.637,3051
1.371,0.260,3051
1.372,-0.253,3051
1.373,-0.843,3051
1.374,-1.393,3059
1.375,-1.827,3059
1.376,-2.098,3059
1.377,-2.183,3059
1.378,-2.123,3059
1.379,-1.903,3059
1.380,-1.127,3059
1.381,-0.688,3059
1.382,-0.130,3059
1.383,0.410,3082
1.384,0.833,3082
1.385,1.097,3082
1.386,1.198,3082
1.387,1.143,3082
1.388,0.940,3082
1.389,0.632,3082
1.390,0.263,3082
1.391,-0.247,3082
1.392,-0.828,3082
1.393,-1.363,3074
1.394,-1.788,3074
1.395,-2.047,3074
1.396,-2.150,3074
1.397,-2.090,3074
1.398,-1.887,3074
1.399,-1.577,3074
1.400,-0.598,3074
1.401,-0.125,3074
1.402,0.417,3065
1.403,0.833,3065
1.404,1.103,3065
1.405,1.210,3065
1.406,1.143,3065
1.407,0.935,3065
1.408,0.623,3065
1.409,0.233,3065
1.410,-0.268,3065
1.411,-0.887,3065
1.412,-1.385,3085
1.413,-1.815,3085
1.414,-2.067,3085
1.415,-2.163,3085
1.416,-2.092,3085
1.417,-1.873,3085
1.418,-1.573,3085
1.419,-1.175,3085
1.420,-0.013,3085
1.421,0.432,3077
1.422,0.868,3077
1.423,1.137,3077
1.424,1.232,3077
1.425,1.167,3077
1.426,0.953,3077
1.427,0.637,3077
1.428,0.258,3077
1.429,-0.260,3077
1.430,-0.843,3077
1.431,-1.380,3076
1.432,-1.808,3076
1.433,-2.062,3076
1.434,-2.163,3076
1.435,-2.098,3076
1.436,-1.885,3076
1.437,-1.575,3076
1.438,-1.177,3076
1.439,-0.680,3076
1.440,0.532,3086
1.441,1.137,3086
1.442,1.222,3086
1.443,1.145,3086
1.444,0.930,3086
1.445,0.613,3086
1.446,0.220,3086
1.447,-0.287,3086
1.448,-0.882,3086
1.449,-1.423,3091
1.450,-1.847,3091
1.451,-2.107,3091
1.452,-2.190,3091
1.453,-2.112,3091
1.454,-1.897,3091
1.455,-1.573,3091
1.456,-1.177,3091
1.457,-0.672,3091
1.458,-0.098,3091
1.459,0.448,3096
1.460,1.167,3096
1.461,1.228,3096
1.462,1.167,3096
1.463,0.940,3096
1.464,0.630,3096
1.465,0.250,3096
1.466,-0.260,3096
1.467,-0.845,3096
1.468,-1.380,3067
1.469,-1.802,3067
1.470,-2.062,3067
1.471,-2.163,3067
1.472,-2.090,3067
1.473,-1.883,3067
1.474,-1.573,3067
1.475,-1.183,3067
1.476,-0.688,3067
1.477,-0.125,3067
1.478,0.415,3104
1.479,0.838,3104
1.480,1.192,3104
1.481,1.077,3104
1.482,0.897,3104
1.483,0.610,3104
1.484,0.223,3104
1.485,-0.278,3104
1.486,-0.858,3104
1.487,-1.390,3108
1.488,-1.823,3108
1.489,-2.083,3108
1.490,-2.167,3108
1.491,-2.095,3108
1.492,-1.883,3108
1.493,-1.567,3108
1.494,-1.177,3108
1.495,-0.672,3108
1.496,-0.102,3108
1.497,0.438,3080
1.498,1.008,3080
1.499,1.218,3080
1.500,0.892,3080
1.501,0.623,3080
1.502,0.237,3080
1.503,-0.268,3080
1.504,-0.873,3080
1.505,-1.373,3065
1.506,-1.820,3065
1.507,-2.092,3065
1.508,-2.178,3065
1.509,-2.103,3065
1.510,-1.897,3065
1.511,-1.577,3065
1.512,-1.188,3065
1.513,-0.657,3065
1.514,-0.098,3065
1.515,0.440,3103
1.516,0.865,3103
1.517,1.143,3103
1.518,1.228,3103
1.519,1.167,3103
1.520,0.578,3103
1.521,0.247,3103
1.522,-0.270,3103
1.523,-0.853,3103
1.524,-1.387,3100
1.525,-1.823,3100
1.526,-2.092,3100
1.527,-2.172,3100
1.528,-2.098,3100
1.529,-1.885,3100
1.530,-1.570,3100
1.531,-1.167,3100
1.532,-0.660,3100
1.533,-0.075,3100
1.534,0.458,3084
1.535,0.877,3084
1.536,1.137,3084
1.537,1.228,3084
1.538,1.150,3084
1.539,0.935,3084
1.540,0.147,3084
1.541,-0.282,3084
1.542,-0.865,3084
1.543,-1.393,3095
1.544,-1.823,3095
1.545,-2.090,3095
1.546,-2.172,3095
1.547,-2.098,3095
1.548,-1.887,3095
1.549,-1.570,3095
1.550,-1.177,3095
1.551,-0.667,3095
1.552,-0.090,3095
1.553,0.450,3051
1.554,0.868,3051
1.555,1.137,3051
1.556,1.228,3051
1.557,1.153,3051
1.558,0.940,3051
1.559,0.630,3051
1.560,-0.372,3051
1.561,-0.858,3051
1.562,-1.393,3091
1.563,-1.823,3091
1.564,-2.083,3091
1.565,-2.165,3091
1.566,-2.085,3091
1.567,-1.867,3091
1.568,-1.565,3091
1.569,-1.173,3091
1.570,-0.682,3091
1.571,-0.098,3091
1.572,0.432,3088
1.573,0.858,3088
1.574,1.117,3088
1.575,1.228,3088
1.576,1.165,3088
1.577,0.950,3088
1.578,0.637,3088
1.579,0.260,3088
1.580,-0.930,3088
1.581,-1.383,3088
1.582,-1.812,3073
1.583,-2.087,3073
1.584,-2.175,3073
1.585,-2.103,3073
1.586,-1.883,3073
1.587,-1.567,3073
1.588,-1.175,3073
1.589,-0.657,3073
1.590,-0.092,3073
1.591,0.448,3073
1.592,0.863,3082
1.593,1.137,3082
1.594,1.228,3082
1.595,1.157,3082
1.596,0.940,3082
1.597,0.632,3082
1.598,0.247,3082
1.599,-0.253,3082
1.600,-1.462,3089
1.601,-2.083,3089
1.602,-2.167,3089
1.603,-2.090,3089
1.604,-1.887,3089
1.605,-1.573,3089
1.606,-1.177,3089
1.607,-0.672,3089
1.608,-0.100,3089
1.609,0.450,3089
1.610,0.855,3086
1.611,1.133,3086
1.612,1.218,3086
1.613,1.145,3086
1.614,0.932,3086
1.615,0.613,3086
1.616,0.223,3086
1.617,-0.292,3086
1.618,-0.882,3086
1.619,-1.420,3086
1.620,-2.132,3082
1.621,-2.105,3082
1.622,-1.883,3082
1.623,-1.562,3082
1.624,-1.163,3082
1.625,-0.657,3082
1.626,-0.085,3082
1.627,0.438,3082
1.628,0.860,3067
1.629,1.115,3067
1.630,1.208,3067
1.631,1.117,3067
1.632,0.910,3067
1.633,0.588,3067
1.634,0.198,3067
1.635,-0.328,3067
1.636,-0.902,3067
1.637,-1.452,3067
1.638,-1.857,3093
1.639,-2.127,3093
1.640,-2.100,3093
1.641,-1.900,3093
1.642,-1.575,3093
1.643,-1.173,3093
1.644,-0.655,3093
1.645,-0.085,3093
1.646,0.458,3093
1.647,0.870,3082
1.648,1.143,3082
1.649,1.228,3082
1.650,1.163,3082
1.651,0.943,3082
1.652,0.632,3082
1.653,0.247,3082
1.654,-0.263,3082
1.655,-0.850,3082
1.656,-1.380,3082
1.657,-1.808,3083
1.658,-2.085,3083
1.659,-2.172,3083
1.660,-1.847,3083
1.661,-1.573,3083
1.662,-1.180,3083
1.663,-0.665,3083
1.664,-0.095,3083
1.665,0.438,3083
1.666,0.858,3077
1.667,1.117,3077
1.668,1.208,3077
1.669,1.143,3077
1.670,0.917,3077
1.671,0.623,3077
1.672,0.233,3077
1.673,-0.278,3077
1.674,-0.858,3077
1.675,-1.383,3077
1.676,-1.802,3074
1.677,-2.062,3074
1.678,-2.147,3074
1.679,-2.083,3074
1.680,-1.500,3074
1.681,-1.163,3074
1.682,-0.652,3074
1.683,-0.087,3074
1.684,0.448,3074
1.685,0.863,3075
1.686,1.143,3075
1.687,1.218,3075
1.688,1.150,3075
1.689,0.938,3075
1.690,0.627,3075
1.691,0.247,3075
1.692,-0.268,3075
1.693,-0.858,3075
1.694,-1.393,3075
1.695,-1.802,3074
1.696,-2.087,3074
1.697,-2.172,3074
1.698,-2.103,3074
1.699,-1.893,3074
1.700,-1.107,3074
1.701,-0.598,3074
1.702,-0.102,3074
1.703,0.427,3074
1.704,0.853,3093
1.705,1.140,3093
1.706,1.218,3093
1.707,1.150,3093
1.708,0.943,3093
1.709,0.632,3093
1.710,0.255,3093
1.711,-0.263,3093
1.712,-0.858,3093
1.713,-1.407,3093
1.714,-1.827,3086
1.715,-2.105,3086
1.716,-2.192,3086
1.717,-2.123,3086
1.718,-1.897,3086
1.719,-1.583,3086
1.720,-0.568,3086
1.721,-0.095,3086
1.722,0.435,3086
1.723,0.855,3095
1.724,1.137,3095
1.725,1.228,3095
1.726,1.155,3095
1.727,0.943,3095
1.728,0.630,3095
1.729,0.237,3095
1.730,-0.278,3095
1.731,-0.868,3095
1.732,-1.413,3095
1.733,-1.843,3087
1.734,-2.103,3087
1.735,-2.183,3087
1.736,-2.103,3087
1.737,-1.887,3087
1.738,-1.577,3087
1.739,-1.180,3087
1.740,-0.007,3087
1.741,0.438,3087
1.742,0.858,3096
1.743,1.117,3096
1.744,1.218,3096
1.745,1.140,3096
1.746,0.930,3096
1.747,0.620,3096
1.748,0.233,3096
1.749,-0.278,3096
1.750,-0.868,3096
1.751,-1.407,3096
1.752,-1.820,3105
1.753,-2.087,3105
1.754,-2.167,3105
1.755,-2.087,3105
1.756,-1.873,3105
1.757,-1.552,3105
1.758,-1.153,3105
1.759,-0.642,3105
1.760,0.542,3105
1.761,0.877,3096
1.762,1.140,3096
1.763,1.218,3096
1.764,1.137,3096
1.765,0.910,3096
1.766,0.595,3096
1.767,0.212,3096
1.768,-0.302,3096
1.769,-0.892,3096
1.770,-1.440,3096
1.771,-1.853,3080
1.772,-2.130,3080
1.773,-2.208,3080
1.774,-2.132,3080
1.775,-1.933,3080
1.776,-1.620,3080
1.777,-1.208,3080
1.778,-0.698,3080
1.779,-0.113,3080
1.780,0.907,3106
1.781,1.235,3106
1.782,1.153,3106
1.783,0.948,3106
1.784,0.632,3106
1.785,0.250,3106
1.786,-0.268,3106
1.787,-0.858,3106
1.788,-1.383,3106
1.789,-1.808,3064
1.790,-2.062,3064
1.791,-2.152,3064
1.792,-2.080,3064
1.793,-1.860,3064
1.794,-1.545,3064
1.795,-1.150,3064
1.796,-0.627,3064
1.797,-0.028,3064
1.798,0.468,3064
1.799,0.887,3100
1.800,1.228,3100
1.801,1.147,3100
1.802,0.895,3100
1.803,0.505,3100
1.804,0.193,3100
1.805,-0.323,3100
1.806,-0.902,3100
1.807,-1.445,3100
1.808,-1.853,3097
1.809,-2.130,3097
1.810,-2.195,3097
1.811,-2.110,3097
1.812,-1.893,3097
1.813,-1.573,3097
1.814,-1.163,3097
1.815,-0.647,3097
1.816,-0.068,3097
1.817,0.472,3097
1.818,0.892,3087
1.819,1.163,3087
1.820,1.150,3087
1.821,0.953,3087
1.822,0.632,3087
1.823,0.245,3087
1.824,-0.278,3087
1.825,-0.868,3087
1.826,-1.407,3087
1.827,-1.815,3091
1.828,-2.085,3091
1.829,-2.163,3091
1.830,-2.085,3091
1.831,-1.853,3091
1.832,-1.540,3091
1.833,-1.147,3091
1.834,-0.642,3091
1.835,-0.065,3091
1.836,0.477,3091
1.837,0.902,3080
1.838,1.173,3080
1.839,1.258,3080
1.840,0.902,3080
1.841,0.627,3080
1.842,0.228,3080
1.843,-0.285,3080
1.844,-0.865,3080
1.845,-1.403,3080
1.846,-1.817,3080
1.847,-2.083,3089
1.848,-2.163,3089
1.849,-2.083,3089
1.850,-1.860,3089
1.851,-1.548,3089
1.852,-1.163,3089
1.853,-0.657,3089
1.854,-0.087,3089
1.855,0.438,3089
1.856,0.860,3089
1.857,1.117,3081
1.858,1.222,3081
1.859,1.150,3081
1.860,0.573,3081
1.861,0.215,3081
1.862,-0.338,3081
1.863,-0.940,3081
1.864,-1.492,3081
1.865,-1.847,3082
1.866,-2.105,3082
1.867,-2.183,3082
1.868,-2.107,3082
1.869,-1.893,3082
1.870,-1.577,3082
1.871,-1.175,3082
1.872,-0.672,3082
1.873,-0.100,3082
1.874,0.438,3082
1.875,0.863,3082
1.876,1.133,3101
1.877,1.218,3101
1.878,1.140,3101
1.879,0.927,3101
1.880,0.138,3101
1.881,-0.302,3101
1.882,-0.887,3101
1.883,-1.417,3101
1.884,-1.843,3101
1.885,-2.098,3053
1.886,-2.178,3053
1.887,-2.103,3053
1.888,-1.887,3053
1.889,-1.570,3053
1.890,-1.170,3053
1.891,-0.662,3053
1.892,-0.092,3053
1.893,0.450,3053
1.894,0.887,3053
1.895,1.120,3040
1.896,1.220,3040
1.897,1.147,3040
1.898,0.868,3040
1.899,0.613,3040
1.900,-0.372,3040
1.901,-0.858,3040
1.902,-1.393,3040
1.903,-1.817,3040
1.904,-2.087,3089
1.905,-2.178,3089
1.906,-2.105,3089
1.907,-1.900,3089
1.908,-1.577,3089
1.909,-1.177,3089
1.910,-0.667,3089
1.911,-0.100,3089
1.912,0.432,3089
1.913,0.848,3089
1.914,1.097,3033
1.915,1.188,3033
1.916,1.107,3033
1.917,0.907,3033
1.918,0.608,3033
1.919,0.215,3033
1.920,-0.980,3033
1.921,-1.417,3033
1.922,-1.843,3033
1.923,-2.110,3078
1.924,-2.192,3078
1.925,-2.123,3078
1.926,-1.897,3078
1.927,-1.583,3078
1.928,-1.183,3078
1.929,-0.682,3078
1.930,-0.100,3078
1.931,0.450,3078
1.932,0.863,3078
1.933,1.117,3079
1.934,1.210,3079
1.935,1.117,3079
1.936,0.907,3079
1.937,0.595,3079
1.938,0.215,3079
1.939,-0.302,3079
1.940,-1.492,3079
1.941,-1.823,3079
1.942,-2.092,3077
1.943,-2.170,3077
1.944,-2.092,3077
1.945,-1.865,3077
1.946,-1.540,3077
1.947,-1.143,3077
1.948,-0.623,3077
1.949,-0.068,3077
1.950,0.463,3077
1.951,0.868,3077
1.952,1.135,3078
1.953,1.212,3078
1.954,1.130,3078
1.955,0.907,3078
1.956,0.588,3078
1.957,0.193,3078
1.958,-0.333,3078
1.959,-0.907,3078
1.960,-1.930,3081
1.961,-2.210,3081
1.962,-2.127,3081
1.963,-1.903,3081
1.964,-1.577,3081
1.965,-1.170,3081
1.966,-0.655,3081
1.967,-0.072,3081
1.968,0.463,3081
1.969,0.875,3081
1.970,1.143,3080
1.971,1.228,3080
1.972,1.143,3080
1.973,0.920,3080
1.974,0.610,3080
1.975,0.220,3080
1.976,-0.297,3080
1.977,-0.873,3080
1.978,-1.410,3080
1.979,-1.820,3080
1.980,-2.152,3092
1.981,-1.853,3092
1.982,-1.538,3092
1.983,-1.133,3092
1.984,-0.613,3092
1.985,-0.050,3092
1.986,0.472,3092
1.987,0.887,3092
1.988,1.137,3103
1.989,1.212,3103
1.990,1.117,3103
1.991,0.907,3103
1.992,0.593,3103
1.993,0.203,3103
1.994,-0.328,3103
1.995,-0.897,3103
1.996,-1.458,3103
1.997,-1.847,3103
1.998,-2.100,3110
1.999,-2.178,3110
2.000,-1.817,3110
2.001,-1.542,3110
2.002,-1.143,3110
2.003,-0.627,3110
2.004,-0.065,3110
2.005,0.468,3110
2.006,0.863,3110
2.007,1.117,3112
2.008,1.215,3112
2.009,1.137,3112
2.010,0.915,3112
2.011,0.608,3112
2.012,0.210,3112
2.013,-0.307,3112
2.014,-0.885,3112
2.015,-1.417,3112
2.016,-1.827,3112
2.017,-2.092,3103
2.018,-2.175,3103
2.019,-2.087,3103
2.020,-1.482,3103
2.021,-1.133,3103
2.022,-0.610,3103
2.023,-0.043,3103
2.024,0.497,3103
2.025,0.887,3103
2.026,1.153,3110
2.027,1.232,3110
2.028,1.157,3110
2.029,0.935,3110
2.030,0.613,3110
2.031,0.217,3110
2.032,-0.300,3110
2.033,-0.892,3110
2.034,-1.442,3110
2.035,-1.853,3110
2.036,-2.112,3103
2.037,-2.192,3103
2.038,-2.112,3103
2.039,-1.890,3103
2.040,-1.087,3103
2.041,-0.650,3103
2.042,-0.060,3103
2.043,0.492,3103
2.044,0.902,3103
2.045,1.175,3082
2.046,1.252,3082
2.047,1.173,3082
2.048,0.953,3082
2.049,0.632,3082
2.050,0.233,3082
2.051,-0.292,3082
2.052,-0.885,3082
2.053,-1.420,3082
2.054,-1.827,3082
2.055,-2.103,3064
2.056,-2.183,3064
2.057,-2.095,3064
2.058,-1.870,3064
2.059,-1.550,3064
2.060,-0.540,3064
2.061,-0.065,3064
2.062,0.463,3064
2.063,0.887,3064
2.064,1.137,3096
2.065,1.212,3096
2.066,1.137,3096
2.067,0.917,3096
2.068,0.598,3096
2.069,0.207,3096
2.070,-0.330,3096
2.071,-0.910,3096
2.072,-1.450,3096
2.073,-1.857,3096
2.074,-2.110,3097
2.075,-2.188,3097
2.076,-2.107,3097
2.077,-1.893,3097
2.078,-1.570,3097
2.079,-1.167,3097
2.080,0.028,3097
2.081,0.453,3097
2.082,0.863,3097
2.083,1.113,3091
2.084,1.208,3091
2.085,1.117,3091
2.086,0.917,3091
2.087,0.588,3091
2.088,0.223,3091
2.089,-0.295,3091
2.090,-0.873,3091
2.091,-1.393,3091
2.092,-1.802,3091
2.093,-2.062,3079
2.094,-2.147,3079
2.095,-2.058,3079
2.096,-1.850,3079
2.097,-1.532,3079
2.098,-1.133,3079
2.099,-0.618,3079
2.100,0.552,3079
2.101,0.882,3079
2.102,1.120,3092
2.103,1.192,3092
2.104,1.107,3092
2.105,0.895,3092
2.106,0.578,3092
2.107,0.188,3092
2.108,-0.335,3092
2.109,-0.905,3092
2.110,-1.440,3092
2.111,-1.845,3092
2.112,-2.103,3082
2.113,-2.178,3082
2.114,-2.092,3082
2.115,-1.863,3082
2.116,-1.540,3082
2.117,-1.133,3082
2.118,-0.618,3082
2.119,-0.048,3082
2.120,0.953,3082
2.121,1.165,3082
2.122,1.238,3075
2.123,1.153,3075
2.124,0.945,3075
2.125,0.632,3075
2.126,0.247,3075
2.127,-0.273,3075
2.128,-0.868,3075
2.129,-1.403,3075
2.130,-1.808,3075
2.131,-2.083,3075
2.132,-2.165,3098
2.133,-2.092,3098
2.134,-1.865,3098
2.135,-1.550,3098
2.136,-1.150,3098
2.137,-0.623,3098
2.138,-0.058,3098
2.139,0.472,3098
2.140,1.195,3081
2.141,1.147,3081
2.142,0.932,3081
2.143,0.615,3081
2.144,0.223,3081
2.145,-0.297,3081
2.146,-0.873,3081
2.147,-1.410,3081
2.148,-1.823,3081
2.149,-2.090,3081
2.150,-2.175,3086
2.151,-2.098,3086
2.152,-1.885,3086
2.153,-1.565,3086
2.154,-1.163,3086
2.155,-0.647,3086
2.156,-0.070,3086
2.157,0.450,3086
2.158,0.850,3086
2.159,1.097,3086
2.160,1.058,3060
2.161,0.542,3060
2.162,0.150,3060
2.163,-0.362,3060
2.164,-0.927,3060
2.165,-1.452,3060
2.166,-1.845,3060
2.167,-2.092,3060
2.168,-2.163,3075
2.169,-2.062,3075
2.170,-1.847,3075
2.171,-1.530,3075
2.172,-1.137,3075
2.173,-0.623,3075
2.174,-0.058,3075
2.175,0.468,3075
2.176,0.868,3075
2.177,1.117,3075
2.178,1.198,3068
2.179,1.103,3068
2.180,0.517,3068
2.181,0.188,3068
2.182,-0.383,3068
2.183,-0.925,3068
2.184,-1.452,3068
2.185,-1.853,3068
2.186,-2.107,3068
2.187,-2.178,3074
2.188,-2.092,3074
2.189,-1.863,3074
2.190,-1.552,3074
2.191,-1.153,3074
2.192,-0.630,3074
2.193,-0.070,3074
2.194,0.460,3074
2.195,0.868,3074
2.196,1.135,3074
2.197,1.210,3071
2.198,1.117,3071
2.199,0.910,3071
2.200,0.128,3071
2.201,-0.302,3071
2.202,-0.897,3071
2.203,-1.442,3071
2.204,-1.853,3071
2.205,-2.107,3071
2.206,-2.185,3078
2.207,-2.100,3078
2.208,-1.883,3078
2.209,-1.562,3078
2.210,-1.150,3078
2.211,-0.627,3078
2.212,-0.058,3078
2.213,0.472,3078
2.214,0.870,3078
2.215,1.117,3078
2.216,1.208,3082
2.217,1.113,3082
2.218,0.912,3082
2.219,0.593,3082
2.220,-0.412,3082
2.221,-0.897,3082
2.222,-1.440,3082
2.223,-1.843,3082
2.224,-2.103,3082
2.225,-2.180,3091
2.226,-2.092,3091
2.227,-1.863,3091
2.228,-1.545,3091
2.229,-1.137,3091
2.230,-0.618,3091
2.231,-0.050,3091
2.232,0.475,3091
2.233,0.895,3091
2.234,1.147,3091
2.235,1.218,3060
2.236,1.133,3060
2.237,0.902,3060
2.238,0.588,3060
2.239,0.193,3060
2.240,-1.010,3060
2.241,-1.458,3060
2.242,-1.863,3060
2.243,-2.123,3060
2.244,-2.192,3089
2.245,-2.103,3089
2.246,-1.877,3089
2.247,-1.562,3089
2.248,-1.147,3089
2.249,-0.615,3089
2.250,-0.052,3089
2.251,0.477,3089
2.252,0.892,3089
2.253,1.143,3089
2.254,1.228,3097
2.255,1.143,3097
2.256,0.912,3097
2.257,0.598,3097
2.258,0.203,3097
2.259,-0.343,3097
2.260,-1.532,3097
2.261,-1.857,3097
2.262,-2.107,3097
2.263,-2.188,3104
2.264,-2.100,3104
2.265,-1.887,3104
2.266,-1.567,3104
2.267,-1.153,3104
2.268,-0.642,3104
2.269,-0.055,3104
2.270,0.477,3104
2.271,0.892,3104
2.272,1.153,3104
2.273,1.232,3100
2.274,1.153,3100
2.275,0.935,3100
2.276,0.620,3100
2.277,0.220,3100
2.278,-0.297,3100
2.279,-0.892,3100
2.280,-1.890,3100
2.281,-2.103,3100
2.282,-2.183,3093
2.283,-2.103,3093
2.284,-1.893,3093
2.285,-1.573,3093
2.286,-1.073,3093
2.287,-0.670,3093
2.288,-0.095,3093
2.289,0.432,3093
2.290,0.850,3093
2.291,1.107,3093
2.292,1.198,3110
2.293,1.113,3110
2.294,0.902,3110
2.295,0.588,3110
2.296,0.198,3110
2.297,-0.323,3110
2.298,-0.892,3110
2.299,-1.423,3110
2.300,-2.123,3110
2.301,-2.167,3113
2.302,-1.847,3113
2.303,-1.548,3113
2.304,-1.150,3113
2.305,-0.623,3113
2.306,-0.052,3113
2.307,0.472,3113
2.308,0.875,3113
2.309,1.143,3113
2.310,1.218,3067
2.311,1.137,3067
2.312,0.917,3067
2.313,0.613,3067
2.314,0.217,3067
2.315,-0.290,3067
2.316,-0.882,3067
2.317,-1.413,3067
2.318,-1.817,3067
2.319,-2.065,3067
2.320,-2.033,3094
2.321,-1.510,3094
2.322,-1.105,3094
2.323,-0.603,3094
2.324,-0.028,3094
2.325,0.500,3094
2.326,0.902,3094
2.327,1.173,3094
2.328,1.240,3098
2.329,1.153,3098
2.330,0.938,3098
2.331,0.620,3098
2.332,0.217,3098
2.333,-0.305,3098
2.334,-0.897,3098
2.335,-1.442,3098
2.336,-1.847,3098
2.337,-2.105,3098
2.338,-2.180,3078
2.339,-2.107,3078
2.340,-1.532,3078
2.341,-1.073,3078
2.342,-0.595,3078
2.343,-0.013,3078
2.344,0.495,3078
2.345,0.927,3078
2.346,1.147,3078
2.347,1.212,3093
2.348,1.117,3093
2.349,0.912,3093
2.350,0.593,3093
2.351,0.205,3093
2.352,-0.395,3093
2.353,-0.895,3093
2.354,-1.425,3093
2.355,-1.843,3093
2.356,-2.092,3093
2.357,-2.170,3101
2.358,-2.087,3101
2.359,-1.857,3101
2.360,-1.055,3101
2.361,-0.613,3101
2.362,-0.030,3101
2.363,0.502,3101
2.364,0.902,3101
2.365,1.167,3101
2.366,1.232,3105
2.367,1.140,3105
2.368,0.917,3105
2.369,0.595,3105
2.370,0.203,3105
2.371,-0.335,3105
2.372,-0.922,3105
2.373,-1.468,3105
2.374,-1.867,3105
2.375,-2.125,3105
2.376,-2.190,3082
2.377,-2.107,3082
2.378,-1.887,3082
2.379,-1.558,3082
2.380,-0.527,3082
2.381,0.087,3082
2.382,0.497,3082
2.383,0.932,3082
2.384,1.173,3082
2.385,1.252,3082
2.386,1.167,3087
2.387,0.938,3087
2.388,0.610,3087
2.389,0.215,3087
2.390,-0.323,3087
2.391,-0.907,3087
2.392,-1.455,3087
2.393,-1.857,3087
2.394,-2.107,3087
2.395,-2.178,3087
2.396,-2.098,3059
2.397,-1.867,3059
2.398,-1.548,3059
2.399,-1.143,3059
2.400,0.055,3059
2.401,0.497,3059
2.402,0.897,3059
2.403,1.163,3059
2.404,1.235,3059
2.405,1.153,3088
2.406,0.932,3088
2.407,0.618,3088
2.408,0.220,3088
2.409,-0.302,3088
2.410,-0.895,3088
2.411,-1.423,3088
2.412,-1.827,3088
2.413,-2.087,3088
2.414,-2.165,3088
2.415,-2.098,3079
2.416,-1.867,3079
2.417,-1.562,3079
2.418,-1.163,3079
2.419,-0.652,3079
2.420,0.552,3079
2.421,0.892,3079
2.422,1.153,3079
2.423,1.230,3079
2.424,1.143,3061
2.425,0.912,3061
2.426,0.598,3061
2.427,0.198,3061
2.428,-0.328,3061
2.429,-0.902,3061
2.430,-1.442,3061
2.431,-1.847,3061
2.432,-2.100,3061
2.433,-2.175,3061
2.434,-2.092,3077
2.435,-1.863,3077
2.436,-1.540,3077
2.437,-1.133,3077
2.438,-0.608,3077
2.439,-0.030,3077
2.440,0.978,3077
2.441,1.208,3077
2.442,1.258,3078
2.443,0.932,3078
2.444,0.637,3078
2.445,0.247,3078
2.446,-0.273,3078
2.447,-0.868,3078
2.448,-1.417,3078
2.449,-1.833,3078
2.450,-2.098,3078
2.451,-2.178,3078
2.452,-2.098,3089
2.453,-1.863,3089
2.454,-1.542,3089
2.455,-1.137,3089
2.456,-0.618,3089
2.457,-0.048,3089
2.458,0.497,3089
2.459,0.897,3089
2.460,1.232,3081
2.461,0.932,3081
2.462,0.623,3081
2.463,0.228,3081
2.464,-0.292,3081
2.465,-0.882,3081
2.466,-1.417,3081
2.467,-1.833,3081
2.468,-2.087,3081
2.469,-2.167,3081
2.470,-2.080,3078
2.471,-1.853,3078
2.472,-1.522,3078
2.473,-1.127,3078
2.474,-0.603,3078
2.475,-0.028,3078
2.476,0.510,3078
2.477,0.910,3078
2.478,1.177,3078
2.479,1.238,3078
2.480,0.902,3078
2.481,0.175,3078
2.482,-0.352,3078
2.483,-0.892,3078
2.484,-1.423,3078
2.485,-1.845,3078
2.486,-2.103,3078
2.487,-2.172,3078
2.488,-2.087,3066
2.489,-1.857,3066
2.490,-1.532,3066
2.491,-1.133,3066
2.492,-0.613,3066
2.493,-0.033,3066
2.494,0.502,3066
2.495,0.910,3066
2.496,1.180,3066
2.497,1.265,3066
2.498,1.177,3095
2.499,0.958,3095
2.500,0.152,3095
2.501,-0.292,3095
2.502,-0.887,3095
2.503,-1.423,3095
2.504,-1.843,3095
2.505,-2.105,3095
2.506,-2.190,3095
2.507,-2.125,3100
2.508,-1.895,3100
2.509,-1.580,3100
2.510,-1.173,3100
2.511,-0.652,3100
2.512,-0.068,3100
2.513,0.470,3100
2.514,0.895,3100
2.515,1.163,3100
2.516,1.248,3100
2.517,1.173,3105
2.518,0.948,3105
2.519,0.632,3105
2.520,-0.393,3105
2.521,-0.887,3105
2.522,-1.427,3105
2.523,-1.847,3105
2.524,-2.120,3105
2.525,-2.203,3105
2.526,-2.123,3103
2.527,-1.897,3103
2.528,-1.583,3103
2.529,-1.183,3103
2.530,-0.667,3103
2.531,-0.092,3103
2.532,0.448,3103
2.533,0.863,3103
2.534,1.133,3103
2.535,1.208,3103
2.536,1.117,3083
2.537,0.897,3083
2.538,0.588,3083
2.539,0.188,3083
2.540,-1.012,3083
2.541,-1.550,3083
2.542,-1.875,3083
2.543,-2.120,3083
2.544,-2.192,3083
2.545,-2.103,3071
2.546,-1.860,3071
2.547,-1.530,3071
2.548,-1.107,3071
2.549,-0.580,3071
2.550,0.015,3071
2.551,0.537,3071
2.552,0.938,3071
2.553,1.188,3071
2.554,1.258,3071
2.555,1.167,3096
2.556,0.938,3096
2.557,0.608,3096
2.558,0.207,3096
2.559,-0.333,3096
2.560,-1.538,3096
2.561,-1.942,3096
2.562,-2.127,3096
2.563,-2.190,3096
2.564,-2.100,3105
2.565,-1.857,3105
2.566,-1.538,3105
2.567,-1.133,3105
2.568,-0.560,3105
2.569,-0.007,3105
2.570,0.535,3105
2.571,0.938,3105
2.572,1.205,3105
2.573,1.272,3105
2.574,1.188,3102
2.575,0.953,3102
2.576,0.632,3102
2.577,0.228,3102
2.578,-0.320,3102
2.579,-0.907,3102
2.580,-1.935,3102
2.581,-2.143,3102
2.582,-2.212,3102
2.583,-2.123,3080
2.584,-1.893,3080
2.585,-1.573,3080
2.586,-1.150,3080
2.587,-0.620,3080
2.588,-0.033,3080
2.589,0.507,3080
2.590,0.912,3080
2.591,1.175,3080
2.592,1.248,3080
2.593,1.165,3088
2.594,0.927,3088
2.595,0.608,3088
2.596,0.193,3088
2.597,-0.347,3088
2.598,-0.938,3088
2.599,-1.482,3088
2.600,-2.172,3088
2.601,-2.212,3088
2.602,-2.120,3090
2.603,-1.883,3090
2.604,-1.558,3090
2.605,-1.140,3090
2.606,-0.613,3090
2.607,-0.033,3090
2.608,0.515,3090
2.609,0.932,3090
2.610,1.190,3090
2.611,1.268,3090
2.612,1.180,3093
2.613,0.948,3093
2.614,0.625,3093
2.615,0.217,3093
2.616,-0.328,3093
2.617,-0.922,3093
2.618,-1.470,3093
2.619,-1.883,3093
2.620,-2.212,3093
2.621,-2.110,3088
2.622,-1.883,3088
2.623,-1.552,3088
2.624,-1.135,3088
2.625,-0.595,3088
2.626,-0.013,3088
2.627,0.537,3088
2.628,0.943,3088
2.629,1.208,3088
2.630,1.272,3088
2.631,1.190,3095
2.632,0.953,3095
2.633,0.623,3095
2.634,0.215,3095
2.635,-0.328,3095
2.636,-0.922,3095
2.637,-1.462,3095
2.638,-1.867,3095
2.639,-2.127,3095
2.640,-2.098,3081
2.641,-1.512,3081
2.642,-1.093,3081
2.643,-0.608,3081
2.644,0.033,3081
2.645,0.527,3081
2.646,0.938,3081
2.647,1.228,3081
2.648,1.262,3081
2.649,1.157,3058
2.650,0.573,3058
2.651,0.203,3058
2.652,-0.350,3058
2.653,-0.963,3058
2.654,-1.502,3058
2.655,-1.923,3058
2.656,-2.167,3058
2.657,-2.223,3058
2.658,-2.132,3058
2.659,-1.897,3080
2.660,-1.058,3080
2.661,-0.608,3080
2.662,-0.022,3080
2.663,0.570,3080
2.664,0.930,3080
2.665,1.208,3080
2.666,1.268,3080
2.667,1.165,3066
2.668,0.930,3066
2.669,0.613,3066
2.670,0.203,3066
2.671,-0.347,3066
2.672,-1.005,3066
2.673,-1.542,3066
2.674,-1.927,3066
2.675,-2.183,3066
2.676,-2.257,3066
2.677,-2.163,3066
2.678,-1.925,3078
2.679,-1.570,3078
2.680,-0.510,3078
2.681,-0.015,3078
2.682,0.537,3078
2.683,0.948,3078
2.684,1.202,3078
2.685,1.268,3078
2.686,1.170,3078
2.687,0.932,3089
2.688,0.588,3089
2.689,0.182,3089
2.690,-0.372,3089
2.691,-0.978,3089
2.692,-1.528,3089
2.693,-1.942,3089
2.694,-2.192,3089
2.695,-2.263,3089
2.696,-2.167,3089
2.697,-1.927,3082
2.698,-1.573,3082
2.699,-1.147,3082
2.700,0.107,3082
2.701,0.630,3082
2.702,0.958,3082
2.703,1.198,3082
2.704,1.270,3082
2.705,1.177,3082
2.706,0.938,3072
2.707,0.598,3072
2.708,0.190,3072
2.709,-0.347,3072
2.710,-0.943,3072
2.711,-1.498,3072
2.712,-1.907,3072
2.713,-2.163,3072
2.714,-2.228,3072
2.715,-2.127,3072
2.716,-1.890,3070
2.717,-1.550,3070
2.718,-1.133,3070
2.719,-0.593,3070
2.720,0.632,3070
2.721,0.973,3070
2.722,1.220,3070
2.723,1.295,3070
2.724,1.183,3070
2.725,0.945,3067
2.726,0.608,3067
2.727,0.207,3067
2.728,-0.352,3067
2.729,-0.968,3067
2.730,-1.522,3067
2.731,-1.933,3067
2.732,-2.180,3067
2.733,-2.252,3067
2.734,-2.147,3067
2.735,-1.903,3077
2.736,-1.552,3077
2.737,-1.135,3077
2.738,-0.588,3077
2.739,0.028,3077
2.740,1.038,3077
2.741,1.238,3077
2.742,1.327,3077
2.743,1.212,3077
2.744,0.978,3082
2.745,0.598,3082
2.746,0.217,3082
2.747,-0.340,3082
2.748,-0.965,3082
2.749,-1.508,3082
2.750,-1.933,3082
2.751,-2.183,3082
2.752,-2.250,3082
2.753,-2.127,3082
2.754,-1.897,3076
2.755,-1.548,3076
2.756,-1.123,3076
2.757,-0.565,3076
2.758,0.052,3076
2.759,0.598,3076
2.760,1.302,3076
2.761,1.340,3076
2.762,1.222,3076
2.763,0.983,3064
2.764,0.623,3064
2.765,0.207,3064
2.766,-0.495,3064
2.767,-1.002,3064
2.768,-1.538,3064
2.769,-1.948,3064
2.770,-2.212,3064
2.771,-2.283,3064
2.772,-2.185,3064
2.773,-1.933,3090
2.774,-1.603,3090
2.775,-1.163,3090
2.776,-0.613,3090
2.777,0.013,3090
2.778,0.568,3090
2.779,0.998,3090
2.780,1.343,3090
2.781,1.232,3090
2.782,1.008,3090
2.783,0.660,3090
2.784,0.237,3090
2.785,-0.328,3090
2.786,-0.943,3090
2.787,-1.520,3090
2.788,-1.948,3090
2.789,-2.210,3090
2.790,-2.283,3090
2.791,-2.183,3090
2.792,-1.952,3080
2.793,-1.610,3080
2.794,-1.185,3080
2.795,-0.623,3080
2.796,-0.007,3080
2.797,0.552,3080
2.798,0.983,3080
2.799,1.248,3080
2.800,1.188,3080
2.801,0.988,3092
2.802,0.632,3092
2.803,0.207,3092
2.804,-0.362,3092
2.805,-0.985,3092
2.806,-1.552,3092
2.807,-1.982,3092
2.808,-2.223,3092
2.809,-2.297,3092
2.810,-2.188,3092
2.811,-1.945,3083
2.812,-1.583,3083
2.813,-1.143,3083
2.814,-0.580,3083
2.815,0.052,3083
2.816,0.613,3083
2.817,1.038,3083
2.818,1.302,3083
2.819,1.370,3083
2.820,0.950,3102
2.821,0.177,3102
2.822,-0.362,3102
2.823,-0.988,3102
2.824,-1.548,3102
2.825,-1.982,3102
2.826,-2.257,3102
2.827,-2.328,3102
2.828,-2.212,3102
2.829,-1.968,3082
2.830,-1.607,3082
2.831,-1.143,3082
2.832,-0.570,3082
2.833,0.062,3082
2.834,0.618,3082
2.835,1.038,3082
2.836,1.302,3082
2.837,1.357,3082
2.838,1.238,3082
2.839,0.912,3095
2.840,-0.013,3095
2.841,-0.412,3095
2.842,-1.083,3095
2.843,-1.603,3095
2.844,-2.020,3095
2.845,-2.283,3095
2.846,-2.340,3095
2.847,-2.220,3095
2.848,-1.968,3104
2.849,-1.587,3104
2.850,-1.143,3104
2.851,-0.568,3104
2.852,0.077,3104
2.853,0.662,3104
2.854,1.090,3104
2.855,1.367,3104
2.856,1.423,3104
2.857,1.308,3104
2.858,1.020,3098
2.859,0.657,3098
2.860,-0.482,3098
2.861,-1.058,3098
2.862,-1.613,3098
2.863,-2.047,3098
2.864,-2.328,3098
2.865,-2.377,3098
2.866,-2.265,3098
2.867,-2.002,3087
2.868,-1.627,3087
2.869,-1.167,3087
2.870,-0.573,3087
2.871,0.070,3087
2.872,0.652,3087
2.873,1.073,3087
2.874,1.353,3087
2.875,1.410,3087
2.876,1.310,3087
2.877,1.030,3094
2.878,0.660,3094
2.879,0.207,3094
2.880,-1.143,3094
2.881,-1.627,3094
2.882,-2.058,3094
2.883,-2.325,3094
2.884,-2.382,3094
2.885,-2.260,3094
2.886,-1.988,3095
2.887,-1.613,3095
2.888,-1.143,3095
2.889,-0.550,3095
2.890,0.105,3095
2.891,0.695,3095
2.892,1.143,3095
2.893,1.420,3095
2.894,1.492,3095
2.895,1.377,3095
2.896,1.097,3092
2.897,0.713,3092
2.898,0.247,3092
2.899,-0.372,3092
2.900,-1.738,3092
2.901,-2.107,3092
2.902,-2.373,3092
2.903,-2.442,3092
2.904,-2.315,3092
2.905,-2.042,3083
2.906,-1.653,3083
2.907,-1.170,3083
2.908,-0.570,3083
2.909,0.100,3083
2.910,0.700,3083
2.911,1.147,3083
2.912,1.423,3083
2.913,1.478,3083
2.914,1.350,3083
2.915,1.058,3081
2.916,0.667,3081
2.917,0.188,3081
2.918,-0.432,3081
2.919,-1.123,3081
2.920,-2.225,3081
2.921,-2.462,3081
2.922,-2.490,3081
2.923,-2.310,3081
2.924,-1.985,3071
2.925,-1.125,3071
2.926,-0.537,3071
2.927,0.142,3071
2.928,0.748,3071
2.929,1.192,3071
2.930,1.472,3071
2.931,1.532,3071
2.932,1.423,3071
2.933,1.147,3071
2.934,0.752,3084
2.935,0.233,3084
2.936,-0.420,3084
2.937,-1.103,3084
2.938,-1.792,3084
2.939,-2.208,3084
2.940,-2.533,3084
2.941,-2.357,3084
2.942,-2.123,3084
2.943,-1.710,3076
2.944,-1.188,3076
2.945,-0.562,3076
2.946,0.133,3076
2.947,0.748,3076
2.948,1.218,3076
2.949,1.495,3076
2.950,1.552,3076
2.951,1.417,3076
2.952,1.113,3076
2.953,0.710,3085
2.954,0.198,3085
2.955,-0.502,3085
2.956,-1.165,3085
2.957,-1.808,3085
2.958,-2.265,3085
2.959,-2.518,3085
2.960,-2.355,3085
2.961,-2.042,3075
2.962,-1.135,3075
2.963,-0.505,3075
2.964,0.220,3075
2.965,0.868,3075
2.966,1.347,3075
2.967,1.637,3075
2.968,1.688,3075
2.969,1.530,3075
2.970,1.205,3075
2.971,0.760,3079
2.972,0.220,3079
2.973,-0.438,3079
2.974,-1.177,3079
2.975,-1.853,3079
2.976,-2.328,3079
2.977,-2.612,3079
2.978,-2.663,3079
2.979,-2.498,3079
2.980,-1.657,3058
2.981,-0.497,3058
2.982,0.253,3058
2.983,0.912,3058
2.984,1.420,3058
2.985,1.708,3058
2.986,1.758,3058
2.987,1.590,3058
2.988,1.258,3058
2.989,0.787,3085
2.990,0.223,3085
2.991,-0.487,3085
2.992,-1.238,3085
2.993,-1.927,3085
2.994,-2.408,3085
2.995,-2.683,3085
2.996,-2.723,3085
2.997,-2.560,3085
2.998,-2.212,3085
2.999,-1.765,3085
3.000,-0.345,3085
3.001,0.302,3085
3.002,0.995,3085
3.003,1.502,3085
3.004,1.817,3085
3.005,1.857,3085
3.006,1.673,3085
3.007,1.327,3085
3.008,0.838,3096
3.009,0.253,3096
3.010,-0.468,3096
3.011,-1.255,3096
3.012,-1.978,3096
3.013,-2.482,3096
3.014,-2.780,3096
3.015,-2.812,3096
3.016,-2.647,3096
3.017,-2.288,3096
3.018,-1.808,3087
3.019,-1.183,3087
3.020,0.480,3087
3.021,1.077,3087
3.022,1.617,3087
3.023,1.917,3087
3.024,1.962,3087
3.025,1.748,3087
3.026,1.360,3087
3.027,0.858,3085
3.028,0.228,3085
3.029,-0.532,3085
3.030,-1.377,3085
3.031,-2.120,3085
3.032,-2.647,3085
3.033,-2.938,3085
3.034,-2.967,3085
3.035,-2.763,3085
3.036,-2.368,3085
3.037,-1.843,3103
3.038,-1.177,3103
3.039,-0.393,3103
3.040,1.347,3103
3.041,1.798,3103
3.042,2.123,3103
3.043,2.145,3103
3.044,1.905,3103
3.045,1.478,3103
3.046,0.912,3088
3.047,0.237,3088
3.048,-0.578,3088
3.049,-1.482,3088
3.050,-2.305,3088
3.051,-2.812,3088
3.052,-3.103,3088
3.053,-3.123,3088
3.054,-2.893,3088
3.055,-2.453,3088
3.056,-1.860,3106
3.057,-1.173,3106
3.058,-0.338,3106
3.059,0.580,3106
3.060,2.053,3106
3.061,2.317,3106
3.062,2.342,3106
3.063,2.058,3106
3.064,1.583,3106
3.065,0.958,3133
3.066,0.247,3133
3.067,-0.647,3133
3.068,-1.613,3133
3.069,-2.428,3133
3.070,-3.002,3133
3.071,-3.305,3133
3.072,-3.312,3133
3.073,-3.060,3133
3.074,-2.603,3133
3.075,-1.978,3116
3.076,-1.218,3116
3.077,-0.323,3116
3.078,0.667,3116
3.079,1.548,3116
3.080,2.590,3116
3.081,2.572,3116
3.082,2.252,3116
3.083,1.718,3116
3.084,1.058,3126
3.085,0.270,3126
3.086,-0.690,3126
3.087,-1.708,3126
3.088,-2.603,3126
3.089,-3.203,3126
3.090,-3.527,3126
3.091,-3.522,3126
3.092,-3.232,3126
3.093,-2.728,3126
3.094,-2.047,3136
3.095,-1.218,3136
3.096,-0.242,3136
3.097,0.820,3136
3.098,1.752,3136
3.099,2.462,3136
3.100,2.833,3136
3.101,2.498,3136
3.102,1.900,3136
3.103,1.177,3124
3.104,0.310,3124
3.105,-0.710,3124
3.106,-1.823,3124
3.107,-2.763,3124
3.108,-3.402,3124
3.109,-3.735,3124
3.110,-3.723,3124
3.111,-3.410,3124
3.112,-2.862,3124
3.113,-2.132,3140
3.114,-1.238,3140
3.115,-0.203,3140
3.116,0.932,3140
3.117,1.940,3140
3.118,2.703,3140
3.119,3.147,3140
3.120,2.603,3140
3.121,1.992,3140
3.122,1.100,3150
3.123,-0.873,3150
3.124,-1.952,3150
3.125,-2.933,3150
3.126,-3.612,3150
3.127,-3.967,3150
3.128,-3.945,3150
3.129,-3.587,3150
3.130,-2.982,3150
3.131,-2.192,3173
3.132,-1.248,3173
3.133,-0.130,3173
3.134,1.067,3173
3.135,2.140,3173
3.136,2.978,3173
3.137,3.467,3173
3.138,3.430,3173
3.139,2.935,3173
3.140,1.153,3166
3.141,-1.000,3166
3.142,-2.110,3166
3.143,-3.145,3166
3.144,-3.855,3166
3.145,-4.230,3166
3.146,-4.178,3166
3.147,-3.780,3166
3.148,-3.138,3166
3.149,-2.305,3137
3.150,-1.290,3137
3.151,-0.007,3137
3.152,1.208,3137
3.153,2.317,3137
3.154,3.248,3137
3.155,3.780,3137
3.156,3.730,3137
3.157,3.158,3137
3.158,2.330,3137
3.159,1.410,3188
3.160,-1.090,3188
3.161,-2.172,3188
3.162,-3.255,3188
3.163,-4.008,3188
3.164,-4.383,3188
3.165,-4.340,3188
3.166,-3.933,3188
3.167,-3.248,3188
3.168,-2.368,3171
3.169,-1.305,3171
3.170,-0.065,3171
3.171,1.295,3171
3.172,2.495,3171
3.173,3.498,3171
3.174,4.103,3171
3.175,4.032,3171
3.176,3.402,3171
3.177,2.487,3171
3.178,1.495,3186
3.179,0.388,3186
3.180,-2.493,3186
3.181,-3.620,3186
3.182,-4.228,3186
3.183,-4.603,3186
3.184,-4.553,3186
3.185,-4.110,3186
3.186,-3.382,3186
3.187,-2.450,3186
3.188,-1.353,3184
3.189,0.013,3184
3.190,1.413,3184
3.191,2.692,3184
3.192,3.768,3184
3.193,4.423,3184
3.194,4.338,3184
3.195,3.630,3184
3.196,2.632,3184
3.197,1.552,3184
3.198,0.412,3192
3.199,-0.985,3192
3.200,-3.743,3192
3.201,-4.390,3192
3.202,-4.782,3192
3.203,-4.707,3192
3.204,-4.245,3192
3.205,-3.462,3192
3.206,-2.485,3192
3.207,-1.333,3213
3.208,0.090,3213
3.209,1.515,3213
3.210,2.897,3213
3.211,4.060,3213
3.212,4.728,3213
3.213,4.612,3213
3.214,3.817,3213
3.215,2.748,3213
3.216,1.613,3213
3.217,0.420,3229
3.218,-1.050,3229
3.219,-2.495,3229
3.220,-4.643,3229
3.221,-4.942,3229
3.222,-4.883,3229
3.223,-4.393,3229
3.224,-3.587,3229
3.225,-2.590,3229
3.226,-1.393,3227
3.227,0.087,3227
3.228,1.555,3227
3.229,2.973,3227
3.230,4.195,3227
3.231,4.857,3227
3.232,4.745,3227
3.233,3.947,3227
3.234,2.812,3227
3.235,1.653,3227
3.236,0.438,3239
3.237,-1.058,3239
3.238,-2.542,3239
3.239,-3.788,3239
3.240,-5.072,3239
3.241,-4.978,3239
3.242,-4.463,3239
3.243,-3.615,3239
3.244,-2.592,3239
3.245,-1.377,3209
3.246,0.147,3209
3.247,1.665,3209
3.248,3.152,3209
3.249,4.513,3209
3.250,4.955,3209
3.251,4.862,3209
3.252,4.067,3209
3.253,2.913,3209
3.254,1.698,3209
3.255,0.458,3260
3.256,-1.073,3260
3.257,-2.587,3260
3.258,-3.853,3260
3.259,-4.710,3260
3.260,-5.003,3260
3.261,-4.548,3260
3.262,-3.703,3260
3.263,-2.655,3260
3.264,-1.390,3281
3.265,0.147,3281
3.266,1.702,3281
3.267,3.248,3281
3.268,4.593,3281
3.269,4.975,3281
3.270,4.900,3281
3.271,4.133,3281
3.272,2.967,3281
3.273,1.738,3281
3.274,0.472,3295
3.275,-1.062,3295
3.276,-2.627,3295
3.277,-3.928,3295
3.278,-4.808,3295
3.279,-5.120,3295
3.280,-4.487,3295
3.281,-3.553,3295
3.282,-2.647,3295
3.283,-1.383,3323
3.284,0.188,3323
3.285,1.758,3323
3.286,3.377,3323
3.287,4.740,3323
3.288,4.990,3323
3.289,4.933,3323
3.290,4.205,3323
3.291,2.998,3323
3.292,1.778,3323
3.293,0.497,3344
3.294,-1.067,3344
3.295,-2.655,3344
3.296,-3.973,3344
3.297,-4.872,3344
3.298,-5.120,3344
3.299,-5.120,3344
3.300,-3.618,3344
3.301,-2.700,3344
3.302,-1.407,3370
3.303,0.193,3370
3.304,1.808,3370
3.305,3.413,3370
3.306,4.798,3370
3.307,4.987,3370
3.308,4.930,3370
3.309,4.207,3370
3.310,3.013,3370
3.311,1.752,3370
3.312,0.468,3414
3.313,-1.127,3414
3.314,-2.708,3414
3.315,-4.043,3414
3.316,-4.938,3414
3.317,-5.120,3414
3.318,-5.120,3414
3.319,-4.652,3414
3.320,-2.473,3414
3.321,-1.375,3449
3.322,0.237,3449
3.323,1.867,3449
3.324,3.538,3449
3.325,4.910,3449
3.326,4.997,3449
3.327,4.938,3449
3.328,4.237,3449
3.329,3.033,3449
3.330,1.785,3449
3.331,0.477,3471
3.332,-1.110,3471
3.333,-2.735,3471
3.334,-4.082,3471
3.335,-5.008,3471
3.336,-5.120,3471
3.337,-5.120,3471
3.338,-4.695,3471
3.339,-3.820,3471
3.340,-1.143,3491
3.341,2.075,3491
3.342,3.598,3491
3.343,4.942,3491
3.344,5.013,3491
3.345,4.673,3491
3.346,2.947,3491
3.347,1.808,3491
3.348,0.502,3558
3.349,-1.140,3558
3.350,-2.788,3558
3.351,-4.143,3558
3.352,-5.067,3558
3.353,-5.120,3558
3.354,-5.120,3558
3.355,-4.707,3558
3.356,-3.842,3558
3.357,-2.725,3558
3.358,-1.383,3629
3.359,0.250,3629
3.360,3.982,3629
3.361,4.980,3629
3.362,4.997,3629
3.363,4.950,3629
3.364,4.308,3629
3.365,3.105,3629
3.366,1.823,3629
3.367,0.500,3655
3.368,-1.155,3655
3.369,-2.812,3655
3.370,-4.207,3655
3.371,-5.120,3655
3.372,-5.120,3655
3.373,-5.120,3655
3.374,-4.720,3655
3.375,-3.857,3655
3.376,-2.728,3655
3.377,-1.377,3735
3.378,0.297,3735
3.379,2.018,3735
3.380,5.013,3735
3.381,5.022,3735
3.382,4.952,3735
3.383,4.375,3735
3.384,3.140,3735
3.385,1.855,3735
3.386,0.517,3804
3.387,-1.163,3804
3.388,-2.830,3804
3.389,-4.242,3804
3.390,-5.120,3804
3.391,-5.120,3804
3.392,-5.120,3804
3.393,-4.737,3804
3.394,-3.862,3804
3.395,-2.728,3804
3.396,-1.377,3876
3.397,0.302,3876
3.398,2.060,3876
3.399,3.917,3876
3.400,5.020,3876
3.401,4.935,3876
3.402,4.390,3876
3.403,3.067,3876
3.404,1.718,3876
3.405,0.427,3947
3.406,-2.993,3947
3.407,-4.263,3947
3.408,-5.120,3947
3.409,-5.120,3947
3.410,-5.120,3947
3.411,-4.753,3947
3.412,-3.897,3947
3.413,-2.750,3947
3.414,-1.387,4006
3.415,0.297,4006
3.416,2.047,4006
3.417,3.915,4006
3.418,4.987,4006
3.419,5.020,4006
3.420,4.253,4006
3.421,2.950,4006
3.422,1.755,4006
3.423,0.380,4073
3.424,-3.075,4073
3.425,-4.412,4073
3.426,-5.120,4073
3.427,-5.120,4073
3.428,-5.120,4073
3.429,-4.763,4073
3.430,-3.897,4073
3.431,-2.763,4073
3.432,-1.403,4092
3.433,0.312,4092
3.434,2.062,4092
3.435,4.048,4092
3.436,5.008,4092
3.437,5.008,4092
3.438,4.975,4092
3.439,4.407,4092
3.440,1.650,4092
3.441,0.158,4098
3.442,-2.982,4098
3.443,-4.340,4098
3.444,-5.120,4098
3.445,-5.120,4098
3.446,-5.120,4098
3.447,-4.763,4098
3.448,-3.893,4098
3.449,-2.748,4098
3.450,-1.390,4116
3.451,0.297,4116
3.452,2.078,4116
3.453,3.955,4116
3.454,5.015,4116
3.455,5.020,4116
3.456,4.957,4116
3.457,4.418,4116
3.458,3.178,4116
3.459,1.877,4116
3.460,-1.458,4098
3.461,-4.348,4098
3.462,-5.120,4098
3.463,-5.120,4098
3.464,-5.120,4098
3.465,-4.763,4098
3.466,-3.900,4098
3.467,-2.760,4098
3.468,-1.393,4098
3.469,0.278,4149
3.470,2.092,4149
3.471,3.975,4149
3.472,5.003,4149
3.473,5.013,4149
3.474,4.957,4149
3.475,4.412,4149
3.476,3.172,4149
3.477,1.875,4149
3.478,0.512,4149
3.479,-1.140,4145
3.480,-4.503,4145
3.481,-5.120,4145
3.482,-5.120,4145
3.483,-5.120,4145
3.484,-4.742,4145
3.485,-3.873,4145
3.486,-2.723,4145
3.487,-1.367,4145
3.488,0.338,4137
3.489,2.172,4137
3.490,4.053,4137
3.491,5.050,4137
3.492,5.020,4137
3.493,4.978,4137
3.494,4.423,4137
3.495,3.160,4137
3.496,1.863,4137
3.497,0.497,4137
3.498,-1.175,4145
3.499,-2.953,4145
3.500,-5.120,4145
3.501,-5.120,4145
3.502,-5.120,4145
3.503,-4.753,4145
3.504,-3.888,4145
3.505,-2.743,4145
3.506,-1.370,4145
3.507,0.310,4125
3.508,2.147,4125
3.509,4.045,4125
3.510,4.995,4125
3.511,5.018,4125
3.512,4.952,4125
3.513,4.410,4125
3.514,3.178,4125
3.515,1.867,4125
3.516,0.500,4125
3.517,-1.185,4128
3.518,-2.967,4128
3.519,-4.375,4128
3.520,-5.120,4128
3.521,-5.120,4128
3.522,-4.772,4128
3.523,-3.908,4128
3.524,-2.763,4128
3.525,-1.385,4128
3.526,0.333,4139
3.527,2.188,4139
3.528,4.088,4139
3.529,5.013,4139
3.530,5.018,4139
3.531,4.975,4139
3.532,4.428,4139
3.533,3.178,4139
3.534,1.863,4139
3.535,0.497,4139
3.536,-1.262,4160
3.537,-2.993,4160
3.538,-4.423,4160
3.539,-5.120,4160
3.540,-5.120,4160
3.541,-4.785,4160
3.542,-3.913,4160
3.543,-2.768,4160
3.544,-1.387,4160
3.545,0.307,4148
3.546,2.172,4148
3.547,4.090,4148
3.548,5.008,4148
3.549,5.010,4148
3.550,4.957,4148
3.551,4.430,4148
3.552,3.178,4148
3.553,1.860,4148
3.554,0.472,4148
3.555,-1.212,4187
3.556,-3.022,4187
3.557,-4.455,4187
3.558,-5.120,4187
3.559,-5.120,4187
3.560,-4.697,4187
3.561,-3.947,4187
3.562,-2.792,4187
3.563,-1.413,4187
3.564,0.312,4210
3.565,2.197,4210
3.566,4.152,4210
3.567,5.008,4210
3.568,5.010,4210
3.569,4.982,4210
3.570,4.473,4210
3.571,3.230,4210
3.572,1.897,4210
3.573,0.512,4210
3.574,-1.208,4231
3.575,-3.047,4231
3.576,-4.495,4231
3.577,-5.120,4231
3.578,-5.120,4231
3.579,-5.120,4231
3.580,-3.785,4231
3.581,-2.812,4231
3.582,-1.407,4231
3.583,0.343,4344
3.584,2.263,4344
3.585,4.287,4344
3.586,5.018,4344
3.587,5.053,4344
3.588,4.990,4344
3.589,4.510,4344
3.590,3.263,4344
3.591,1.907,4344
3.592,0.507,4344
3.593,-1.238,4414
3.594,-3.092,4414
3.595,-4.585,4414
3.596,-5.120,4414
3.597,-5.120,4414
3.598,-5.120,4414
3.599,-4.853,4414
3.600,-2.627,4414
3.601,-1.073,4414
3.602,0.398,4520
3.603,2.288,4520
3.604,4.397,4520
3.605,5.020,4520
3.606,5.018,4520
3.607,4.975,4520
3.608,4.548,4520
3.609,3.270,4520
3.610,1.910,4520
3.611,0.502,4520
3.612,-1.282,4629
3.613,-3.138,4629
3.614,-4.673,4629
3.615,-5.120,4629
3.616,-5.120,4629
3.617,-5.120,4629
3.618,-4.870,4629
3.619,-4.013,4629
3.620,-1.147,4629
3.621,0.463,4764
3.622,2.348,4764
3.623,4.508,4764
3.624,5.008,4764
3.625,5.018,4764
3.626,4.987,4764
3.627,4.463,4764
3.628,3.308,4764
3.629,1.978,4764
3.630,0.540,4764
3.631,-1.260,4899
3.632,-3.178,4899
3.633,-4.707,4899
3.634,-5.120,4899
3.635,-5.120,4899
3.636,-5.120,4899
3.637,-4.902,4899
3.638,-4.043,4899
3.639,-2.862,4899
3.640,0.693,5108
3.641,4.625,5108
3.642,5.027,5108
3.643,5.020,5108
3.644,5.008,5108
3.645,4.630,5108
3.646,3.393,5108
3.647,2.013,5108
3.648,0.578,5108
3.649,-1.230,5303
3.650,-3.172,5303
3.651,-4.732,5303
3.652,-5.120,5303
3.653,-5.120,5303
3.654,-5.120,5303
3.655,-4.897,5303
3.656,-4.043,5303
3.657,-2.853,5303
3.658,-1.405,5303
3.659,0.448,5494
3.660,4.957,5494
3.661,5.027,5494
3.662,5.035,5494
3.663,5.005,5494
3.664,4.690,5494
3.665,3.425,5494
3.666,2.020,5494
3.667,0.575,5494
3.668,-1.295,5824
3.669,-3.257,5824
3.670,-4.827,5824
3.671,-5.120,5824
3.672,-5.120,5824
3.673,-5.120,5824
3.674,-4.938,5824
3.675,-4.093,5824
3.676,-2.902,5824
3.677,-1.448,5824
3.678,0.438,6122
3.679,2.540,6122
3.680,5.032,6122
3.681,5.062,6122
3.682,5.013,6122
3.683,4.710,6122
3.684,3.433,6122
3.685,2.022,6122
3.686,0.552,6122
3.687,-1.312,6440
3.688,-3.303,6440
3.689,-4.900,6440
3.690,-5.120,6440
3.691,-5.120,6440
3.692,-5.120,6440
3.693,-4.950,6440
3.694,-4.100,6440
3.695,-2.913,6440
3.696,-1.425,6440
3.697,0.438,6735
3.698,2.540,6735
3.699,4.857,6735
3.700,5.020,6735
3.701,4.620,6735
3.702,3.460,6735
3.703,2.038,6735
3.704,0.565,6735
3.705,-1.312,7042
3.706,-3.308,7042
3.707,-4.928,7042
3.708,-5.120,7042
3.709,-5.120,7042
3.710,-5.120,7042
3.711,-4.970,7042
3.712,-4.125,7042
3.713,-2.938,7042
3.714,-1.458,7042
3.715,0.453,7363
3.716,2.598,7363
3.717,4.910,7363
3.718,5.025,7363
3.719,5.045,7363
3.720,4.607,7363
3.721,3.507,7363
3.722,2.067,7363
3.723,0.527,7363
3.724,-1.300,7681
3.725,-3.340,7681
3.726,-4.947,7681
3.727,-5.120,7681
3.728,-5.120,7681
3.729,-5.120,7681
3.730,-4.950,7681
3.731,-4.112,7681
3.732,-2.933,7681
3.733,-1.448,7681
3.734,0.458,7681
3.735,2.587,8013
3.736,4.942,8013
3.737,5.022,8013
3.738,5.027,8013
3.739,5.013,8013
3.740,3.272,8013
3.741,2.092,8013
3.742,0.598,8013
3.743,-1.308,8013
3.744,-3.310,8364
3.745,-4.990,8364
3.746,-5.120,8364
3.747,-5.120,8364
3.748,-5.120,8364
3.749,-5.003,8364
3.750,-4.173,8364
3.751,-2.970,8364
3.752,-1.468,8364
3.753,0.438,8364
3.754,2.610,8741
3.755,4.973,8741
3.756,5.032,8741
3.757,5.035,8741
3.758,5.013,8741
3.759,4.785,8741
3.760,1.863,8741
3.761,0.110,8741
3.762,-1.542,8741
3.763,-3.388,9184
3.764,-5.077,9184
3.765,-5.120,9184
3.766,-5.120,9184
3.767,-5.120,9184
3.768,-5.022,9184
3.769,-4.190,9184
3.770,-2.993,9184
3.771,-1.502,9184
3.772,0.438,9184
3.773,2.610,9592
3.774,4.950,9592
3.775,5.035,9592
3.776,5.032,9592
3.777,5.032,9592
3.778,4.817,9592
3.779,3.237,9592
3.780,0.268,9592
3.781,-1.395,9592
3.782,-3.455,9980
3.783,-5.120,9980
3.784,-5.120,9980
3.785,-5.120,9980
3.786,-5.120,9980
3.787,-5.043,9980
3.788,-4.223,9980
3.789,-3.027,9980
3.790,-1.530,9980
3.791,0.450,9980
3.792,2.688,10296
3.793,5.013,10296
3.794,5.035,10296
3.795,5.030,10296
3.796,5.015,10296
3.797,4.827,10296
3.798,3.578,10296
3.799,2.110,10296
3.800,-1.765,10597
3.801,-5.120,10597
3.802,-5.120,10597
3.803,-5.120,10597
3.804,-5.120,10597
3.805,-5.022,10597
3.806,-4.173,10597
3.807,-2.950,10597
3.808,-1.413,10597
3.809,0.570,10597
3.810,2.817,10881
3.811,5.008,10881
3.812,5.048,10881
3.813,5.032,10881
3.814,5.018,10881
3.815,4.850,10881
3.816,3.625,10881
3.817,2.150,10881
3.818,0.618,10881
3.819,-1.380,10881
3.820,-5.120,11126
3.821,-5.120,11126
3.822,-5.120,11126
3.823,-5.058,11126
3.824,-4.178,11126
3.825,-2.980,11126
3.826,-1.470,11126
3.827,0.547,11126
3.828,2.837,11437
3.829,5.005,11437
3.830,5.037,11437
3.831,5.048,11437
3.832,5.013,11437
3.833,4.880,11437
3.834,3.658,11437
3.835,2.167,11437
3.836,0.613,11437
3.837,-1.395,11437
3.838,-3.525,11849
3.839,-5.120,11849
3.840,-5.120,11849
3.841,-5.015,11849
3.842,-4.237,11849
3.843,-3.042,11849
3.844,-1.498,11849
3.845,0.537,11849
3.846,2.857,12378
3.847,5.013,12378
3.848,5.050,12378
3.849,5.037,12378
3.850,5.015,12378
3.851,4.862,12378
3.852,3.660,12378
3.853,2.158,12378
3.854,0.583,12378
3.855,-1.482,12378
3.856,-3.623,13105
3.857,-5.120,13105
3.858,-5.120,13105
3.859,-5.120,13105
3.860,-4.992,13105
3.861,-2.967,13105
3.862,-1.488,13105
3.863,0.557,13105
3.864,2.913,14041
3.865,5.020,14041
3.866,5.037,14041
3.867,5.032,14041
3.868,5.032,14041
3.869,4.912,14041
3.870,3.700,14041
3.871,2.183,14041
3.872,0.590,14041
3.873,-1.460,14041
3.874,-3.627,15246
3.875,-5.120,15246
3.876,-5.120,15246
3.877,-5.120,15246
3.878,-5.120,15246
3.879,-5.120,15246
3.880,-2.848,15246
3.881,-1.407,15246
3.882,0.708,15246
3.883,3.178,16699
3.884,5.048,16699
3.885,5.037,16699
3.886,5.022,16699
3.887,4.910,16699
3.888,3.748,16699
3.889,2.228,16699
3.890,0.632,16699
3.891,-1.452,16699
3.892,-3.630,18340
3.893,-5.120,18340
3.894,-5.120,18340
3.895,-5.120,18340
3.896,-5.120,18340
3.897,-5.120,18340
3.898,-4.305,18340
3.899,-3.083,18340
3.900,0.932,18340
3.901,2.973,20162
3.902,5.027,20162
3.903,5.050,20162
3.904,5.048,20162
3.905,5.022,20162
3.906,4.905,20162
3.907,3.730,20162
3.908,2.212,20162
3.909,0.618,20162
3.910,-1.478,20162
3.911,-3.660,22104
3.912,-5.120,22104
3.913,-5.120,22104
3.914,-5.120,22104
3.915,-5.120,22104
3.916,-5.120,22104
3.917,-4.325,22104
3.918,-3.100,22104
3.919,-1.532,22104
3.920,3.417,24645
3.921,5.053,24645
3.922,5.048,24645
3.923,5.010,24645
3.924,4.902,24645
3.925,3.730,24645
3.926,2.195,24645
3.927,0.593,24645
3.928,-1.505,24645
3.929,-3.723,28089
3.930,-5.120,28089
3.931,-5.120,28089
3.932,-5.120,28089
3.933,-5.120,28089
3.934,-5.120,28089
3.935,-4.338,28089
3.936,-3.103,28089
3.937,-1.512,28089
3.938,0.613,28089
3.939,3.098,32626
3.940,4.992,32626
3.941,5.027,32626
3.942,5.013,32626
3.943,4.918,32626
3.944,3.790,32626
3.945,2.252,32626
3.946,0.623,32626
3.947,-1.502,32626
3.948,-3.732,-26931
3.949,-5.120,-26931
3.950,-5.120,-26931
3.951,-5.120,-26931
3.952,-5.120,-26931
3.953,-5.120,-26931
3.954,-4.348,-26931
3.955,-3.107,-26931
3.956,-1.512,-26931
3.957,0.632,-26931
3.958,3.152,-18980
3.959,5.027,-18980
3.960,5.035,-18980
3.961,5.015,-18980
3.962,4.928,-18980
3.963,3.732,-18980
3.964,2.257,-18980
3.965,0.627,-18980
3.966,-1.643,-18980
3.967,-3.820,-11923
3.968,-5.120,-11923
3.969,-5.120,-11923
3.970,-5.120,-11923
3.971,-5.120,-11923
3.972,-5.120,-11923
3.973,-4.348,-11923
3.974,-3.103,-11923
3.975,-1.492,-11923
3.976,0.672,-11923
3.977,3.192,-9864
3.978,5.027,-9864
3.979,5.072,-9864
3.980,5.027,-9864
3.981,4.938,-9864
3.982,3.825,-9864
3.983,2.285,-9864
3.984,0.627,-9864
3.985,-1.522,-9864
3.986,-3.788,-8760
3.987,-5.120,-8760
3.988,-5.120,-8760
3.989,-5.120,-8760
3.990,-5.120,-8760
3.991,-5.120,-8760
3.992,-4.367,-8760
3.993,-3.140,-8760
3.994,-1.522,-8760
3.995,0.652,-8760
3.996,3.188,-7652
3.997,5.037,-7652
3.998,5.058,-7652
3.999,5.043,-7652
4.000,4.857,-7652
4.001,2.127,-7652
4.002,0.632,-7652
4.003,-1.525,-7652
4.004,-3.790,-7652
4.005,-5.120,-6787
4.006,-5.120,-6787
4.007,-5.120,-6787
4.008,-5.120,-6787
4.009,-5.120,-6787
4.010,-4.340,-6787
4.011,-3.103,-6787
4.012,-1.488,-6787
4.013,0.672,-6787
4.014,3.197,-6787
4.015,5.027,-5619
4.016,5.058,-5619
4.017,5.055,-5619
4.018,5.020,-5619
4.019,4.928,-5619
4.020,2.015,-5619
4.021,0.315,-5619
4.022,-1.667,-5619
4.023,-3.953,-4093
4.024,-5.120,-4093
4.025,-5.120,-4093
4.026,-5.120,-4093
4.027,-5.120,-4093
4.028,-5.120,-4093
4.029,-4.340,-4093
4.030,-3.087,-4093
4.031,-1.468,-4093
4.032,0.693,-4093
4.033,3.212,-4093
4.034,5.027,-2996
4.035,5.048,-2996
4.036,5.037,-2996
4.037,5.025,-2996
4.038,4.933,-2996
4.039,3.808,-2996
4.040,0.302,-2996
4.041,-2.002,-2996
4.042,-3.882,-2996
4.043,-5.120,-2128
4.044,-5.120,-2128
4.045,-5.120,-2128
4.046,-5.120,-2128
4.047,-5.120,-2128
4.048,-4.362,-2128
4.049,-3.127,-2128
4.050,-1.538,-2128
4.051,0.620,-2128
4.052,3.135,-2128
4.053,5.018,-1504
4.054,5.058,-1504
4.055,5.037,-1504
4.056,5.027,-1504
4.057,4.918,-1504
4.058,3.795,-1504
4.059,2.255,-1504
4.060,-2.303,-1504
4.061,-3.888,-1504
4.062,-5.120,-1067
4.063,-5.120,-1067
4.064,-5.120,-1067
4.065,-5.120,-1067
4.066,-4.348,-1067
4.067,-3.098,-1067
4.068,-1.492,-1067
4.069,0.637,-1067
4.070,3.143,-1067
4.071,5.027,-311
4.072,5.075,-311
4.073,5.053,-311
4.074,5.020,-311
4.075,4.930,-311
4.076,3.780,-311
4.077,2.232,-311
4.078,0.613,-311
4.079,-1.512,-311
4.080,-5.120,317
4.081,-5.120,317
4.082,-5.120,317
4.083,-5.120,317
4.084,-4.340,317
4.085,-3.103,317
4.086,-1.492,317
4.087,0.657,317
4.088,3.172,317
4.089,5.058,394
4.090,5.050,394
4.091,5.053,394
4.092,5.027,394
4.093,4.918,394
4.094,3.792,394
4.095,2.237,394
4.096,0.615,394
4.097,-1.522,394
4.098,-3.743,394
4.099,-5.120,1155
4.100,-5.120,1155
4.101,-5.120,1155
4.102,-5.120,1155
4.103,-4.242,1155
4.104,-2.663,1155
4.105,-1.353,1155
4.106,0.670,1155
4.107,3.180,1155
4.108,5.022,2139
4.109,5.053,2139
4.110,5.037,2139
4.111,5.020,2139
4.112,4.912,2139
4.113,3.743,2139
4.114,2.208,2139
4.115,0.578,2139
4.116,-1.603,2139
4.117,-3.857,2139
4.118,-5.120,3145
4.119,-5.120,3145
4.120,-5.120,3145
4.121,-5.018,3145
4.122,-4.287,3145
4.123,-3.092,3145
4.124,-1.482,3145
4.125,0.675,3145
4.126,3.180,3145
4.127,5.035,4177
4.128,5.053,4177
4.129,5.048,4177
4.130,5.022,4177
4.131,4.933,4177
4.132,3.775,4177
4.133,2.230,4177
4.134,0.593,4177
4.135,-1.538,4177
4.136,-3.783,4177
4.137,-5.120,5302
4.138,-5.120,5302
4.139,-5.120,5302
4.140,-5.053,5302
4.141,-4.330,5302
4.142,-3.087,5302
4.143,-1.492,5302
4.144,0.662,5302
4.145,3.183,5302
4.146,5.040,6357
4.147,5.048,6357
4.148,5.050,6357
4.149,5.022,6357
4.150,4.907,6357
4.151,3.777,6357
4.152,2.223,6357
4.153,0.583,6357
4.154,-1.567,6357
4.155,-3.817,6357
4.156,-5.120,7313
4.157,-5.120,7313
4.158,-5.120,7313
4.159,-5.120,7313
4.160,-4.145,7313
4.161,-3.092,7313
4.162,-1.455,7313
4.163,0.718,7313
4.164,3.272,7313
4.165,5.032,8198
4.166,5.060,8198
4.167,5.072,8198
4.168,5.030,8198
4.169,4.933,8198
4.170,3.800,8198
4.171,2.260,8198
4.172,0.610,8198
4.173,-1.552,8198
4.174,-3.808,8198
4.175,-5.120,8954
4.176,-5.120,8954
4.177,-5.120,8954
4.178,-5.120,8954
4.179,-5.120,8954
4.180,-2.842,8954
4.181,-1.462,8954
4.182,0.693,8954
4.183,3.197,8954
4.184,5.027,9605
4.185,5.053,9605
4.186,5.048,9605
4.187,5.027,9605
4.188,4.928,9605
4.189,3.752,9605
4.190,2.215,9605
4.191,0.580,9605
4.192,-1.573,9605
4.193,-3.825,9605
4.194,-5.120,10197
4.195,-5.120,10197
4.196,-5.120,10197
4.197,-5.120,10197
4.198,-5.120,10197
4.199,-4.327,10197
4.200,-1.100,10197
4.201,3.862,10197
4.202,5.037,10620
4.203,5.055,10620
4.204,5.053,10620
4.205,5.027,10620
4.206,4.918,10620
4.207,3.743,10620
4.208,2.172,10620
4.209,0.565,10620
4.210,-1.603,10620
4.211,-3.862,10620
4.212,-5.120,11038
4.213,-5.120,11038
4.214,-5.120,11038
4.215,-5.120,11038
4.216,-5.120,11038
4.217,-4.322,11038
4.218,-3.067,11038
4.219,-1.450,11038
4.220,3.712,11038
4.221,5.043,11529
4.222,5.037,11529
4.223,5.037,11529
4.224,4.912,11529
4.225,3.768,11529
4.226,2.217,11529
4.227,0.573,11529
4.228,-1.573,11529
4.229,-3.790,11529
4.230,-5.120,12073
4.231,-5.120,12073
4.232,-5.120,12073
4.233,-5.120,12073
4.234,-5.120,12073
4.235,-4.300,12073
4.236,-3.055,12073
4.237,-1.417,12073
4.238,0.740,12073
4.239,3.263,12073
4.240,5.058,12761
4.241,5.027,12761
4.242,4.933,12761
4.243,3.777,12761
4.244,2.232,12761
4.245,0.608,12761
4.246,-1.538,12761
4.247,-3.772,12761
4.248,-5.120,13418
4.249,-5.120,13418
4.250,-5.120,13418
4.251,-5.120,13418
4.252,-5.120,13418
4.253,-4.282,13418
4.254,-3.020,13418
4.255,-1.410,13418
4.256,0.738,13418
4.257,3.300,13418
4.258,5.018,14120
4.259,5.048,14120
4.260,4.992,14120
4.261,4.850,14120
4.262,3.667,14120
4.263,2.072,14120
4.264,0.477,14120
4.265,-1.732,14120
4.266,-4.013,14120
4.267,-5.120,14733
4.268,-5.120,14733
4.269,-5.120,14733
4.270,-5.120,14733
4.271,-5.120,14733
4.272,-4.272,14733
4.273,-3.020,14733
4.274,-1.390,14733
4.275,0.757,14733
4.276,3.300,14733
4.277,5.020,14733
4.278,5.055,15374
4.279,5.053,15374
4.280,4.827,15374
4.281,3.672,15374
4.282,2.138,15374
4.283,0.588,15374
4.284,-1.548,15374
4.285,-3.808,15374
4.286,-5.120,15374
4.287,-5.120,16085
4.288,-5.120,16085
4.289,-5.120,16085
4.290,-5.120,16085
4.291,-4.282,16085
4.292,-3.020,16085
4.293,-1.383,16085
4.294,0.777,16085
4.295,3.310,16085
4.296,5.030,16085
4.297,5.053,16799
4.298,5.053,16799
4.299,5.022,16799
4.300,3.547,16799
4.301,2.237,16799
4.302,0.220,16799
4.303,-1.617,16799
4.304,-3.785,16799
4.305,-5.120,16799
4.306,-5.120,17274
4.307,-5.120,17274
4.308,-5.120,17274
4.309,-5.120,17274
4.310,-4.290,17274
4.311,-3.047,17274
4.312,-1.415,17274
4.313,0.752,17274
4.314,3.300,17274
4.315,5.027,17274
4.316,5.050,18189
4.317,5.032,18189
4.318,5.027,18189
4.319,4.918,18189
4.320,1.955,18189
4.321,0.472,18189
4.322,-2.053,18189
4.323,-3.953,18189
4.324,-5.120,18189
4.325,-5.120,19204
4.326,-5.120,19204
4.327,-5.120,19204
4.328,-5.120,19204
4.329,-4.293,19204
4.330,-3.040,19204
4.331,-1.417,19204
4.332,0.748,19204
4.333,3.277,19204
4.334,5.048,19204
4.335,5.045,20272
4.336,5.055,20272
4.337,5.027,20272
4.338,4.928,20272
4.339,3.745,20272
4.340,0.233,20272
4.341,-2.092,20272
4.342,-4.242,20272
4.343,-5.120,20272
4.344,-5.120,21337
4.345,-5.120,21337
4.346,-5.120,21337
4.347,-5.120,21337
4.348,-4.285,21337
4.349,-3.027,21337
4.350,-1.403,21337
4.351,0.748,21337
4.352,3.263,21337
4.353,5.030,21337
4.354,5.055,22246
4.355,5.048,22246
4.356,5.058,22246
4.357,4.925,22246
4.358,3.737,22246
4.359,2.183,22246
4.360,-2.007,22246
4.361,-3.987,22246
4.362,-5.120,22246
4.363,-5.120,23054
4.364,-5.120,23054
4.365,-5.005,23054
4.366,-4.128,23054
4.367,-2.942,23054
4.368,-1.423,23054
4.369,0.718,23054
4.370,3.248,23054
4.371,5.060,23054
4.372,5.058,23691
4.373,5.060,23691
4.374,5.027,23691
4.375,4.910,23691
4.376,3.725,23691
4.377,2.188,23691
4.378,0.540,23691
4.379,-1.617,23691
4.380,-5.120,23691
4.381,-5.120,24076
4.382,-5.120,24076
4.383,-5.120,24076
4.384,-5.120,24076
4.385,-4.290,24076
4.386,-3.042,24076
4.387,-1.407,24076
4.388,0.740,24076
4.389,3.263,24076
4.390,5.035,24076
4.391,5.050,24260
4.392,5.053,24260
4.393,5.027,24260
4.394,4.893,24260
4.395,3.703,24260
4.396,2.167,24260
4.397,0.517,24260
4.398,-1.627,24260
4.399,-3.880,24260
4.400,-5.120,24237
4.401,-5.120,24237
4.402,-5.120,24237
4.403,-4.272,24237
4.404,-3.020,24237
4.405,-1.393,24237
4.406,0.748,24237
4.407,3.272,24237
4.408,5.048,24237
4.409,5.048,24139
4.410,5.027,24139
4.411,5.022,24139
4.412,4.907,24139
4.413,3.710,24139
4.414,2.170,24139
4.415,0.537,24139
4.416,-1.623,24139
4.417,-3.860,24139
4.418,-5.120,24139
4.419,-5.120,24009
4.420,-5.120,24009
4.421,-5.120,24009
4.422,-4.275,24009
4.423,-3.018,24009
4.424,-1.383,24009
4.425,0.743,24009
4.426,3.272,24009
4.427,5.025,24009
4.428,5.050,23862
4.429,5.048,23862
4.430,5.015,23862
4.431,4.897,23862
4.432,3.728,23862
4.433,2.172,23862
4.434,0.542,23862
4.435,-1.617,23862
4.436,-3.845,23862
4.437,-5.120,23862
4.438,-5.120,23813
4.439,-5.120,23813
4.440,-5.003,23813
4.441,-4.263,23813
4.442,-3.010,23813
4.443,-1.383,23813
4.444,0.757,23813
4.445,3.263,23813
4.446,5.032,23813
4.447,5.048,23814
4.448,5.037,23814
4.449,5.013,23814
4.450,4.928,23814
4.451,3.692,23814
4.452,2.147,23814
4.453,0.500,23814
4.454,-1.663,23814
4.455,-3.888,23814
4.456,-5.120,23814
4.457,-5.120,23891
4.458,-5.120,23891
4.459,-5.120,23891
4.460,-4.090,23891
4.461,-3.042,23891
4.462,-1.410,23891
4.463,0.733,23891
4.464,3.232,23891
4.465,5.055,23891
4.466,5.067,24058
4.467,5.035,24058
4.468,5.020,24058
4.469,4.900,24058
4.470,3.672,24058
4.471,2.132,24058
4.472,0.477,24058
4.473,-1.647,24058
4.474,-3.875,24058
4.475,-5.120,24058
4.476,-5.120,24242
4.477,-5.120,24242
4.478,-5.120,24242
4.479,-5.120,24242
4.480,-2.810,24242
4.481,-1.410,24242
4.482,0.743,24242
4.483,3.230,24242
4.484,5.027,24242
4.485,5.027,24355
4.486,5.030,24355
4.487,5.022,24355
4.488,4.900,24355
4.489,3.692,24355
4.490,2.067,24355
4.491,0.507,24355
4.492,-1.633,24355
4.493,-3.853,24355
4.494,-5.120,24355
4.495,-5.120,24321
4.496,-5.120,24321
4.497,-5.120,24321
4.498,-5.120,24321
4.499,-4.242,24321
4.500,-1.032,24321
4.501,3.518,24321
4.502,5.018,24321
4.503,5.037,24096
4.504,5.053,24096
4.505,5.018,24096
4.506,4.902,24096
4.507,3.705,24096
4.508,2.180,24096
4.509,0.545,24096
4.510,-1.600,24096
4.511,-3.817,24096
4.512,-5.120,24096
4.513,-5.120,23736
4.514,-5.120,23736
4.515,-5.120,23736
4.516,-5.120,23736
4.517,-4.250,23736
4.518,-2.982,23736
4.519,-1.337,23736
4.520,3.857,23736
4.521,5.027,23736
4.522,5.027,23266
4.523,5.053,23266
4.524,5.018,23266
4.525,4.907,23266
4.526,3.728,23266
4.527,2.183,23266
4.528,0.542,23266
4.529,-1.607,23266
4.530,-3.820,23266
4.531,-5.120,23266
4.532,-5.120,22709
4.533,-5.120,22709
4.534,-5.120,22709
4.535,-5.120,22709
4.536,-4.258,22709
4.537,-2.993,22709
4.538,-1.370,22709
4.539,0.767,22709
4.540,5.022,22709
4.541,5.027,22136
4.542,5.008,22136
4.543,5.005,22136
4.544,4.857,22136
4.545,3.672,22136
4.546,2.158,22136
4.547,0.507,22136
4.548,-1.647,22136
4.549,-3.868,22136
4.550,-5.120,22136
4.551,-5.120,21605
4.552,-5.120,21605
4.553,-5.120,21605
4.554,-5.120,21605
4.555,-4.258,21605
4.556,-3.002,21605
4.557,-1.380,21605
4.558,0.777,21605
4.559,3.277,21605
4.560,5.018,21121
4.561,5.015,21121
4.562,4.893,21121
4.563,3.672,21121
4.564,2.150,21121
4.565,0.505,21121
4.566,-1.633,21121
4.567,-3.857,21121
4.568,-5.120,21121
4.569,-5.120,21121
4.570,-5.120,20634
4.571,-5.120,20634
4.572,-5.115,20634
4.573,-4.247,20634
4.574,-3.002,20634
4.575,-1.370,20634
4.576,0.785,20634
4.577,3.292,20634
4.578,5.018,20634
4.579,5.053,20634
4.580,5.008,20304
4.581,3.663,20304
4.582,2.158,20304
4.583,0.522,20304
4.584,-1.855,20304
4.585,-3.942,20304
4.586,-5.120,20304
4.587,-5.120,20304
4.588,-5.120,20034
4.589,-5.120,20034
4.590,-5.095,20034
4.591,-4.192,20034
4.592,-2.962,20034
4.593,-1.333,20034
4.594,0.792,20034
4.595,3.277,20034
4.596,5.018,20034
4.597,5.050,20034
4.598,5.048,19848
4.599,5.013,19848
4.600,3.433,19848
4.601,2.167,19848
4.602,0.507,19848
4.603,-1.620,19848
4.604,-3.812,19848
4.605,-5.120,19848
4.606,-5.120,19848
4.607,-5.120,19696
4.608,-5.120,19696
4.609,-5.095,19696
4.610,-4.228,19696
4.611,-2.965,19696
4.612,-1.327,19696
4.613,0.820,19696
4.614,3.300,19696
4.615,5.030,19696
4.616,5.027,19696
4.617,5.050,19578
4.618,5.018,19578
4.619,4.867,19578
4.620,1.853,19578
4.621,0.455,19578
4.622,-1.695,19578
4.623,-3.897,19578
4.624,-5.120,19578
4.625,-5.120,19578
4.626,-5.120,19456
4.627,-5.120,19456
4.628,-5.093,19456
4.629,-4.228,19456
4.630,-2.970,19456
4.631,-1.330,19456
4.632,0.797,19456
4.633,3.308,19456
4.634,5.032,19456
4.635,5.048,19456
4.636,5.032,19365
4.637,5.027,19365
4.638,4.893,19365
4.639,3.678,19365
4.640,0.195,19365
4.641,-1.627,19365
4.642,-3.848,19365
4.643,-5.120,19365
4.644,-5.120,19365
4.645,-5.120,19252
4.646,-5.120,19252
4.647,-5.070,19252
4.648,-4.207,19252
4.649,-2.938,19252
4.650,-1.270,19252
4.651,0.853,19252
4.652,3.355,19252
4.653,5.020,19252
4.654,5.037,19252
4.655,5.072,19197
4.656,5.018,19197
4.657,4.872,19197
4.658,3.652,19197
4.659,2.115,19197
4.660,-2.027,19197
4.661,-3.865,19197
4.662,-5.120,19197
4.663,-5.120,19197
4.664,-5.120,19231
4.665,-5.120,19231
4.666,-5.098,19231
4.667,-4.232,19231
4.668,-2.975,19231
4.669,-1.337,19231
4.670,0.797,19231
4.671,3.308,19231
4.672,5.032,19231
4.673,5.050,19231
4.674,5.048,19366
4.675,5.025,19366
4.676,4.895,19366
4.677,3.667,19366
4.678,2.147,19366
4.679,0.502,19366
4.680,-4.168,19366
4.681,-5.120,19366
4.682,-5.120,19366
4.683,-5.120,19539
4.684,-5.120,19539
4.685,-5.067,19539
4.686,-4.202,19539
4.687,-2.938,19539
4.688,-1.153,19539
4.689,0.907,19539
4.690,3.348,19539
4.691,5.037,19539
4.692,5.048,19539
4.693,5.037,19724
4.694,5.020,19724
4.695,4.872,19724
4.696,3.647,19724
4.697,2.125,19724
4.698,0.458,19724
4.699,-1.677,19724
4.700,-5.120,19724
4.701,-5.120,19724
4.702,-5.120,19863
4.703,-5.120,19863
4.704,-5.090,19863
4.705,-4.215,19863
4.706,-2.953,19863
4.707,-1.300,19863
4.708,0.828,19863
4.709,3.337,19863
4.710,5.027,19863
4.711,5.048,19863
4.712,5.048,19910
4.713,5.018,19910
4.714,4.888,19910
4.715,3.275,19910
4.716,2.100,19910
4.717,0.468,19910
4.718,-1.683,19910
4.719,-3.885,19910
4.720,-5.120,19910
4.721,-5.120,19909
4.722,-5.120,19909
4.723,-5.080,19909
4.724,-4.218,19909
4.725,-2.947,19909
4.726,-1.298,19909
4.727,0.853,19909
4.728,3.353,19909
4.729,5.027,19909
4.730,5.037,19909
4.731,5.043,19884
4.732,5.020,19884
4.733,4.895,19884
4.734,3.667,19884
4.735,2.138,19884
4.736,0.492,19884
4.737,-1.663,19884
4.738,-3.880,19884
4.739,-5.120,19884
4.740,-5.120,19894
4.741,-5.060,19894
4.742,-4.207,19894
4.743,-2.938,19894
4.744,-1.262,19894
4.745,0.868,19894
4.746,3.388,19894
4.747,5.032,19894
4.748,5.048,19894
4.749,5.055,19833
4.750,5.022,19833
4.751,4.895,19833
4.752,3.658,19833
4.753,2.135,19833
4.754,0.465,19833
4.755,-1.673,19833
4.756,-3.873,19833
4.757,-5.120,19833
4.758,-5.120,19833
4.759,-5.120,19798
4.760,-4.952,19798
4.761,-4.112,19798
4.762,-2.817,19798
4.763,-1.090,19798
4.764,0.900,19798
4.765,3.420,19798
4.766,5.027,19798
4.767,5.032,19798
4.768,5.022,19733
4.769,5.013,19733
4.770,4.893,19733
4.771,3.658,19733
4.772,2.135,19733
4.773,0.477,19733
4.774,-1.663,19733
4.775,-3.862,19733
4.776,-5.120,19733
4.777,-5.120,19733
4.778,-5.120,19764
4.779,-5.120,19764
4.780,-4.018,19764
4.781,-2.925,19764
4.782,-1.250,19764
4.783,0.897,19764
4.784,3.627,19764
4.785,5.027,19764
4.786,5.018,19764
4.787,5.032,19799
4.788,5.025,19799
4.789,4.890,19799
4.790,3.663,19799
4.791,2.140,19799
4.792,0.477,19799
4.793,-1.653,19799
4.794,-3.860,19799
4.795,-5.120,19799
4.796,-5.120,19799
4.797,-5.120,19829
4.798,-5.120,19829
4.799,-5.062,19829
4.800,-2.692,19829
4.801,-1.288,19829
4.802,0.873,19829
4.803,3.382,19829
4.804,5.032,19829
4.805,5.035,19829
4.806,5.022,19913
4.807,5.020,19913
4.808,4.872,19913
4.809,3.610,19913
4.810,2.062,19913
4.811,0.415,19913
4.812,-1.715,19913
4.813,-3.917,19913
4.814,-5.120,19913
4.815,-5.120,19913
4.816,-5.120,20015
4.817,-5.120,20015
4.818,-5.088,20015
4.819,-4.223,20015
4.820,-0.973,20015
4.821,0.848,20015
4.822,3.357,20015
4.823,5.020,20015
4.824,5.032,20015
4.825,5.018,20083
4.826,5.008,20083
4.827,4.872,20083
4.828,3.630,20083
4.829,2.105,20083
4.830,0.455,20083
4.831,-1.692,20083
4.832,-3.885,20083
4.833,-5.120,20083
4.834,-5.120,20083
4.835,-5.120,20083
4.836,-5.120,20135
4.837,-5.055,20135
4.838,-4.205,20135
4.839,-2.935,20135
4.840,1.252,20135
4.841,4.178,20135
4.842,5.032,20135
4.843,5.027,20135
4.844,5.022,20177
4.845,5.032,20177
4.846,4.827,20177
4.847,3.632,20177
4.848,2.112,20177
4.849,0.453,20177
4.850,-1.683,20177
4.851,-3.862,20177
4.852,-5.120,20177
4.853,-5.120,20177
4.854,-5.120,20177
4.855,-5.120,20190
4.856,-5.048,20190
4.857,-4.188,20190
4.858,-2.928,20190
4.859,-1.248,20190
4.860,3.902,20190
4.861,5.067,20190
4.862,5.030,20190
4.863,5.050,20190
4.864,5.018,20234
4.865,4.878,20234
4.866,3.652,20234
4.867,2.130,20234
4.868,0.472,20234
4.869,-1.665,20234
4.870,-3.868,20234
4.871,-5.120,20234
4.872,-5.120,20234
4.873,-5.120,20234
4.874,-5.120,20255
4.875,-5.055,20255
4.876,-4.197,20255
4.877,-2.842,20255
4.878,-1.260,20255
4.879,0.887,20255
4.880,5.048,20255
4.881,5.053,20255
4.882,5.027,20255
4.883,5.008,20405
4.884,3.460,20405
4.885,2.078,20405
4.886,0.438,20405
4.887,-1.708,20405
4.888,-3.913,20405
4.889,-5.120,20405
4.890,-5.120,20405
4.891,-5.120,20405
4.892,-5.120,20656
4.893,-5.053,20656
4.894,-4.210,20656
4.895,-2.935,20656
4.896,-1.292,20656
4.897,0.843,20656
4.898,3.337,20656
4.899,5.027,20656
4.900,5.027,20890
4.901,4.860,20890
4.902,3.575,20890
4.903,2.053,20890
4.904,0.407,20890
4.905,-1.742,20890
4.906,-3.940,20890
4.907,-5.120,20890
4.908,-5.120,20890
4.909,-5.120,20890
4.910,-5.120,21180
4.911,-5.053,21180
4.912,-4.188,21180
4.913,-2.930,21180
4.914,-1.262,21180
4.915,0.897,21180
4.916,3.393,21180
4.917,5.043,21180
4.918,5.053,21180
4.919,5.048,21180
4.920,4.753,21467
4.921,2.060,21467
4.922,0.438,21467
4.923,-1.698,21467
4.924,-3.888,21467
4.925,-5.120,21467
4.926,-5.120,21467
4.927,-5.120,21467
4.928,-5.120,21751
4.929,-5.048,21751
4.930,-4.185,21751
4.931,-2.922,21751
4.932,-1.252,21751
4.933,0.892,21751
4.934,3.410,21751
4.935,5.032,21751
4.936,5.048,21751
4.937,5.025,21751
4.938,5.018,21942
4.939,4.878,21942
4.940,1.853,21942
4.941,0.438,21942
4.942,-1.695,21942
4.943,-3.868,21942
4.944,-5.120,21942
4.945,-5.120,21942
4.946,-5.120,21942
4.947,-5.120,22079
4.948,-5.032,22079
4.949,-4.183,22079
4.950,-2.920,22079
4.951,-1.248,22079
4.952,0.887,22079
4.953,3.388,22079
4.954,5.060,22079
4.955,5.053,22079
4.956,5.045,22079
4.957,5.018,22126
4.958,4.855,22126
4.959,3.612,22126
4.960,0.138,22126
4.961,-1.702,22126
4.962,-3.900,22126
4.963,-5.120,22126
4.964,-5.120,22126
4.965,-5.120,22126
4.966,-5.120,22099
4.967,-5.053,22099
4.968,-4.188,22099
4.969,-2.922,22099
4.970,-1.260,22099
4.971,1.020,22099
4.972,3.393,22099
4.973,5.027,22099
4.974,5.053,22099
4.975,5.050,22099
4.976,5.025,22112
4.977,4.860,22112
4.978,1.817,22112
4.979,0.420,22112
4.980,-4.232,22112
4.981,-5.120,22112
4.982,-5.120,22112
4.983,-5.120,22112
4.984,-5.120,22128
4.985,-5.032,22128
4.986,-4.183,22128
4.987,-2.913,22128
4.988,-1.242,22128
4.989,0.887,22128
4.990,3.357,22128
4.991,5.025,22128
4.992,5.048,22128
4.993,5.035,22128
4.994,5.018,22165
4.995,4.857,22165
4.996,3.598,22165
4.997,2.060,22165
4.998,0.398,22165
4.999,-1.745,22165
5.000,-5.120,22165
5.001,-5.120,22165
5.002,-5.120,22165
5.003,-5.120,22223
5.004,-5.043,22223
5.005,-4.173,22223
5.006,-2.905,22223
5.007,-1.258,22223
5.008,0.875,22223
5.009,3.382,22223
5.010,5.027,22223
5.011,5.043,22223
5.012,5.048,22223
5.013,4.987,22309
5.014,4.853,22309
5.015,3.595,22309
5.016,2.067,22309
5.017,0.430,22309
5.018,-1.720,22309
5.019,-3.910,22309
5.020,-5.120,22309
5.021,-5.120,22309
5.022,-5.120,22307
5.023,-5.048,22307
5.024,-4.180,22307
5.025,-2.920,22307
5.026,-1.042,22307
5.027,0.890,22307
5.028,3.417,22307
5.029,5.032,22307
5.030,5.055,22307
5.031,5.027,22307
5.032,5.013,22309
5.033,4.867,22309
5.034,3.592,22309
5.035,2.058,22309
5.036,0.393,22309
5.037,-1.738,22309
5.038,-3.913,22309
5.039,-5.120,22309
5.040,-5.120,22309
5.041,-5.120,22228
5.042,-5.030,22228
5.043,-4.170,22228
5.044,-2.902,22228
5.045,-1.222,22228
5.046,0.902,22228
5.047,3.390,22228
5.048,5.030,22228
5.049,5.090,22228
5.050,5.027,22228
5.051,4.992,22099
5.052,4.838,22099
5.053,3.575,22099
5.054,2.060,22099
5.055,0.412,22099
5.056,-1.738,22099
5.057,-3.902,22099
5.058,-5.120,22099
5.059,-5.120,22099
5.060,-5.120,21885
5.061,-4.138,21885
5.062,-2.882,21885
5.063,-1.212,21885
5.064,0.930,21885
5.065,3.453,21885
5.066,5.027,21885
5.067,5.053,21885
5.068,5.025,21885
5.069,5.008,21673
5.070,4.862,21673
5.071,3.572,21673
5.072,2.047,21673
5.073,0.312,21673
5.074,-1.740,21673
5.075,-3.902,21673
5.076,-5.120,21673
5.077,-5.120,21673
5.078,-5.120,21673
5.079,-5.120,21448
5.080,-3.982,21448
5.081,-2.647,21448
5.082,-1.107,21448
5.083,0.882,21448
5.084,3.357,21448
5.085,5.032,21448
5.086,5.035,21448
5.087,5.025,21448
5.088,5.003,21189
5.089,4.848,21189
5.090,3.547,21189
5.091,2.038,21189
5.092,0.383,21189
5.093,-1.768,21189
5.094,-3.928,21189
5.095,-5.120,21189
5.096,-5.120,21189
5.097,-5.120,21189
5.098,-5.120,21024
5.099,-5.043,21024
5.100,-2.672,21024
5.101,-1.262,21024
5.102,0.868,21024
5.103,3.340,21024
5.104,5.037,21024
5.105,5.053,21024
5.106,5.032,21024
5.107,4.997,21024
5.108,4.853,20945
5.109,3.538,20945
5.110,2.047,20945
5.111,0.398,20945
5.112,-1.770,20945
5.113,-3.933,20945
5.114,-5.120,20945
5.115,-5.120,20945
5.116,-5.120,20945
5.117,-5.120,20945
5.118,-5.037,20881
5.119,-4.133,20881
5.120,-0.873,20881
5.121,0.927,20881
5.122,3.430,20881
5.123,5.027,20881
5.124,5.053,20881
5.125,5.018,20881
5.126,5.020,20881
5.127,4.855,20853
5.128,3.575,20853
5.129,2.067,20853
5.130,0.420,20853
5.131,-1.735,20853
5.132,-3.913,20853
5.133,-5.120,20853
5.134,-5.120,20853
5.135,-5.120,20853
5.136,-5.120,20853
5.137,-5.053,20790
5.138,-4.168,20790
5.139,-2.897,20790
5.140,1.298,20790
5.141,3.402,20790
5.142,5.025,20790
5.143,5.072,20790
5.144,5.067,20790
5.145,5.022,20790
5.146,4.848,20704
5.147,3.507,20704
5.148,2.025,20704
5.149,0.378,20704
5.150,-1.778,20704
5.151,-3.945,20704
5.152,-5.120,20704
5.153,-5.120,20704
5.154,-5.120,20704
5.155,-5.120,20704
5.156,-5.050,20575
5.157,-4.143,20575
5.158,-2.897,20575
5.159,-1.222,20575
5.160,3.890,20575
5.161,5.027,20575
5.162,5.055,20575
5.163,5.048,20575
5.164,5.013,20575
5.165,4.832,20463
5.166,3.500,20463
5.167,1.998,20463
5.168,0.352,20463
5.169,-1.790,20463
5.170,-4.043,20463
5.171,-5.120,20463
5.172,-5.120,20463
5.173,-5.120,20463
5.174,-5.120,20463
5.175,-5.053,20342
5.176,-4.145,20342
5.177,-2.897,20342
5.178,-1.232,20342
5.179,0.897,20342
5.180,5.032,20342
5.181,5.043,20342
5.182,5.025,20342
5.183,5.018,20342
5.184,4.832,20408
5.185,3.547,20408
5.186,2.030,20408
5.187,0.378,20408
5.188,-1.775,20408
5.189,-3.947,20408
5.190,-5.120,20408
5.191,-5.120,20408
5.192,-5.120,20408
5.193,-5.120,20408
5.194,-5.060,20508
5.195,-4.188,20508
5.196,-2.945,20508
5.197,-1.300,20508
5.198,0.848,20508
5.199,3.317,20508
5.200,5.037,20508
5.201,5.018,20508
5.202,4.798,20640
5.203,3.467,20640
5.204,1.978,20640
5.205,0.307,20640
5.206,-1.833,20640
5.207,-4.003,20640
5.208,-5.120,20640
5.209,-5.120,20640
5.210,-5.120,20640
5.211,-5.120,20640
5.212,-5.048,20839
5.213,-4.168,20839
5.214,-2.902,20839
5.215,-1.228,20839
5.216,0.910,20839
5.217,3.435,20839
5.218,5.032,20839
5.219,5.048,20839
5.220,5.008,20839
5.221,4.822,21017
5.222,3.478,21017
5.223,1.988,21017
5.224,0.338,21017
5.225,-1.812,21017
5.226,-3.985,21017
5.227,-5.120,21017
5.228,-5.120,21017
5.229,-5.120,21017
5.230,-5.120,21017
5.231,-5.043,21118
5.232,-4.140,21118
5.233,-2.900,21118
5.234,-1.220,21118
5.235,0.917,21118
5.236,3.428,21118
5.237,5.037,21118
5.238,5.048,21118
5.239,5.070,21118
5.240,4.690,21307
5.241,1.980,21307
5.242,0.347,21307
5.243,-1.808,21307
5.244,-3.973,21307
5.245,-5.120,21307
5.246,-5.120,21307
5.247,-5.120,21307
5.248,-5.120,21307
5.249,-5.053,21383
5.250,-4.165,21383
5.251,-2.897,21383
5.252,-1.222,21383
5.253,0.920,21383
5.254,3.467,21383
5.255,5.035,21383
5.256,5.037,21383
5.257,5.037,21383
5.258,5.013,21383
5.259,4.835,21412
5.260,1.627,21412
5.261,0.357,21412
5.262,-1.778,21412
5.263,-3.938,21412
5.264,-5.120,21412
5.265,-5.120,21412
5.266,-5.120,21412
5.267,-5.120,21412
5.268,-5.022,21432
5.269,-4.100,21432
5.270,-2.842,21432
5.271,-1.180,21432
5.272,0.958,21432
5.273,3.507,21432
5.274,5.032,21432
5.275,5.048,21432
5.276,5.030,21432
5.277,5.013,21432
5.278,4.838,21372
5.279,3.498,21372
5.280,-0.007,21372
5.281,-1.827,21372
5.282,-3.980,21372
5.283,-5.120,21372
5.284,-5.120,21372
5.285,-5.120,21372
5.286,-5.120,21372
5.287,-5.043,21369
5.288,-4.138,21369
5.289,-2.893,21369
5.290,-1.218,21369
5.291,0.938,21369
5.292,3.458,21369
5.293,5.022,21369
5.294,5.058,21369
5.295,5.037,21369
5.296,5.022,21369
5.297,4.832,21412
5.298,3.507,21412
5.299,2.022,21412
5.300,-2.167,21412
5.301,-3.933,21412
5.302,-5.120,21412
5.303,-5.120,21412
5.304,-5.120,21412
5.305,-5.120,21412
5.306,-5.022,21505
5.307,-4.107,21505
5.308,-2.853,21505
5.309,-1.173,21505
5.310,0.955,21505
5.311,3.478,21505
5.312,5.032,21505
5.313,5.048,21505
5.314,5.050,21505
5.315,5.010,21505
5.316,4.857,21537
5.317,3.542,21537
5.318,2.038,21537
5.319,0.383,21537
5.320,-4.253,21537
5.321,-5.120,21537
5.322,-5.120,21537
5.323,-5.120,21537
5.324,-5.120,21537
5.325,-5.027,21537
5.326,-4.098,21537
5.327,-2.580,21537
5.328,-0.830,21537
5.329,0.953,21537
5.330,3.487,21537
5.331,5.048,21537
5.332,5.048,21537
5.333,5.050,21537
5.334,5.032,21537
5.335,4.855,21481
5.336,3.502,21481
5.337,2.010,21481
5.338,0.362,21481
5.339,-1.792,21481
5.340,-5.120,21481
5.341,-5.120,21481
5.342,-5.120,21481
5.343,-5.120,21481
5.344,-5.018,21327
5.345,-4.112,21327
5.346,-2.850,21327
5.347,-1.173,21327
5.348,0.998,21327
5.349,3.518,21327
5.350,5.067,21327
5.351,5.048,21327
5.352,5.032,21327
5.353,5.008,21327
5.354,4.832,21175
5.355,3.493,21175
5.356,1.980,21175
5.357,0.318,21175
5.358,-1.962,21175
5.359,-4.015,21175
5.360,-5.120,21175
5.361,-5.120,21175
5.362,-5.120,21175
5.363,-5.010,21058
5.364,-2.678,21058
5.365,-1.135,21058
5.366,1.008,21058
5.367,3.542,21058
5.368,5.048,21058
5.369,5.050,21058
5.370,5.027,21058
5.371,5.013,21058
5.372,4.832,21058
5.373,3.538,20895
5.374,1.998,20895
5.375,0.352,20895
5.376,-1.792,20895
5.377,-3.967,20895
5.378,-5.120,20895
5.379,-5.120,20895
5.380,-5.120,20895
5.381,-4.902,20777
5.382,-2.788,20777
5.383,-1.150,20777
5.384,0.993,20777
5.385,3.502,20777
5.386,5.048,20777
5.387,5.053,20777
5.388,5.030,20777
5.389,4.995,20777
5.390,4.815,20777
5.391,3.487,20670
5.392,1.950,20670
5.393,0.290,20670
5.394,-1.863,20670
5.395,-4.043,20670
5.396,-5.120,20670
5.397,-5.120,20670
5.398,-5.120,20670
5.399,-5.120,20670
5.400,-3.967,20524
5.401,-1.012,20524
5.402,0.960,20524
5.403,3.458,20524
5.404,5.032,20524
5.405,5.045,20524
5.406,5.037,20524
5.407,5.003,20524
5.408,4.827,20524
5.409,3.473,20463
5.410,1.978,20463
5.411,0.350,20463
5.412,-1.790,20463
5.413,-3.940,20463
5.414,-5.120,20463
5.415,-5.120,20463
5.416,-5.120,20463
5.417,-5.120,20463
5.418,-5.020,20463
5.419,-4.135,20346
5.420,-0.830,20346
5.421,0.983,20346
5.422,3.473,20346
5.423,5.035,20346
5.424,5.043,20346
5.425,5.048,20346
5.426,5.050,20346
5.427,4.843,20346
5.428,3.502,20218
5.429,1.958,20218
5.430,0.333,20218
5.431,-2.058,20218
5.432,-4.202,20218
5.433,-5.120,20218
5.434,-5.120,20218
5.435,-5.120,20218
5.436,-5.120,20218
5.437,-5.018,20218
5.438,-4.128,20139
5.439,-2.808,20139
5.440,1.417,20139
5.441,3.553,20139
5.442,5.070,20139
5.443,5.035,20139
5.444,5.037,20139
5.445,5.013,20139
5.446,4.793,20139
5.447,3.467,20110
5.448,1.913,20110
5.449,0.273,20110
5.450,-1.907,20110
5.451,-4.080,20110
5.452,-5.120,20110
5.453,-5.120,20110
5.454,-5.120,20110
5.455,-5.120,20110
5.456,-5.027,20110
5.457,-4.128,20129
5.458,-2.777,20129
5.459,-1.125,20129
5.460,4.060,20129
5.461,5.048,20129
5.462,5.048,20129
5.463,5.013,20129
5.464,4.812,20129
5.465,3.473,20206
5.466,1.940,20206
5.467,0.278,20206
5.468,-1.893,20206
5.469,-4.060,20206
5.470,-5.120,20206
5.471,-5.120,20206
5.472,-5.120,20206
5.473,-5.120,20206
5.474,-5.010,20206
5.475,-4.107,20338
5.476,-2.812,20338
5.477,-1.137,20338
5.478,1.022,20338
5.479,3.553,20338
5.480,5.058,20338
5.481,5.020,20338
5.482,4.798,20338
5.483,3.493,20455
5.484,1.940,20455
5.485,0.290,20455
5.486,-1.867,20455
5.487,-4.032,20455
5.488,-5.120,20455
5.489,-5.120,20455
5.490,-5.120,20455
5.491,-5.120,20455
5.492,-5.027,20455
5.493,-4.133,20523
5.494,-2.848,20523
5.495,-1.153,20523
5.496,1.010,20523
5.497,3.553,20523
5.498,5.027,20523
5.499,5.048,20523
5.500,5.008,20523
5.501,4.815,20523
5.502,3.498,20710
5.503,1.955,20710
5.504,0.305,20710
5.505,-1.867,20710
5.506,-4.043,20710
5.507,-5.120,20710
5.508,-5.120,20710
5.509,-5.120,20710
5.510,-5.120,20710
5.511,-5.010,20710
5.512,-4.107,20822
5.513,-2.803,20822
5.514,-1.127,20822
5.515,1.028,20822
5.516,3.567,20822
5.517,5.037,20822
5.518,5.048,20822
5.519,5.037,20822
5.520,4.423,20822
5.521,3.390,20920
5.522,1.965,20920
5.523,0.280,20920
5.524,-1.843,20920
5.525,-4.287,20920
5.526,-5.120,20920
5.527,-5.120,20920
5.528,-5.120,20920
5.529,-5.120,20920
5.530,-5.008,20920
5.531,-4.093,20978
5.532,-2.788,20978
5.533,-1.097,20978
5.534,1.038,20978
5.535,3.572,20978
5.536,5.032,20978
5.537,5.077,20978
5.538,5.037,20978
5.539,5.010,20978
5.540,3.232,21042
5.541,-0.320,21042
5.542,-2.103,21042
5.543,-4.067,21042
5.544,-5.120,21042
5.545,-5.120,21042
5.546,-5.120,21042
5.547,-5.120,21042
5.548,-5.013,21042
5.549,-4.112,21054
5.550,-2.812,21054
5.551,-1.107,21054
5.552,1.018,21054
5.553,3.618,21054
5.554,5.032,21054
5.555,5.060,21054
5.556,5.027,21054
5.557,5.020,21054
5.558,4.793,21054
5.559,3.467,21113
5.560,-0.090,21113
5.561,-1.897,21113
5.562,-4.058,21113
5.563,-5.120,21113
5.564,-5.120,21113
5.565,-5.120,21113
5.566,-5.120,21113
5.567,-5.020,21113
5.568,-4.115,21204
5.569,-2.822,21204
5.570,-1.145,21204
5.571,0.998,21204
5.572,3.515,21204
5.573,5.027,21204
5.574,5.053,21204
5.575,5.030,21204
5.576,5.022,21204
5.577,4.820,21204
5.578,3.467,21346
5.579,1.917,21346
5.580,-2.312,21346
5.581,-4.107,21346
5.582,-5.120,21346
5.583,-5.120,21346
5.584,-5.120,21346
5.585,-5.120,21346
5.586,-5.000,21346
5.587,-4.093,21520
5.588,-2.775,21520
5.589,-1.095,21520
5.590,1.077,21520
5.591,3.647,21520
5.592,5.032,21520
5.593,5.032,21520
5.594,5.050,21520
5.595,5.013,21520
5.596,4.822,21520
5.597,3.490,21732
5.598,1.938,21732
5.599,0.263,21732
5.600,-4.418,21732
5.601,-5.120,21732
5.602,-5.120,21732
5.603,-5.120,21732
5.604,-5.120,21732
5.605,-5.003,21732
5.606,-4.093,21876
5.607,-2.777,21876
5.608,-1.100,21876
5.609,1.062,21876
5.610,3.632,21876
5.611,5.032,21876
5.612,5.050,21876
5.613,5.032,21876
5.614,5.020,21876
5.615,4.812,21876
5.616,3.487,21921
5.617,1.938,21921
5.618,0.263,21921
5.619,-1.927,21921
5.620,-5.120,21921
5.621,-5.120,21921
5.622,-5.120,21921
5.623,-5.120,21921
5.624,-5.003,21921
5.625,-4.090,21824
5.626,-2.777,21824
5.627,-1.105,21824
5.628,1.067,21824
5.629,3.632,21824
5.630,5.032,21824
5.631,5.075,21824
5.632,5.072,21824
5.633,5.008,21824
5.634,4.812,21824
5.635,3.493,21824
5.636,1.968,21607
5.637,0.255,21607
5.638,-1.893,21607
5.639,-4.062,21607
5.640,-5.120,21607
5.641,-5.120,21607
5.642,-5.120,21607
5.643,-5.003,21607
5.644,-4.050,21267
5.645,-2.780,21267
5.646,-1.085,21267
5.647,1.073,21267
5.648,3.638,21267
5.649,5.048,21267
5.650,5.048,21267
5.651,5.035,21267
5.652,5.010,21267
5.653,4.817,21267
5.654,3.112,20866
5.655,0.198,20866
5.656,-1.938,20866
5.657,-4.095,20866
5.658,-5.120,20866
5.659,-5.120,20866
5.660,-5.120,20866
5.661,-5.018,20866
5.662,-4.103,20866
5.663,-2.817,20562
5.664,-1.077,20562
5.665,1.067,20562
5.666,3.638,20562
5.667,5.027,20562
5.668,5.048,20562
5.669,5.032,20562
5.670,5.022,20562
5.671,4.827,20562
5.672,3.493,20562
5.673,1.968,20310
5.674,0.245,20310
5.675,-1.897,20310
5.676,-4.067,20310
5.677,-5.120,20310
5.678,-5.120,20310
5.679,-5.120,20310
5.680,-4.890,20310
5.681,-3.783,20098
5.682,-0.927,20098
5.683,1.058,20098
5.684,3.550,20098
5.685,5.035,20098
5.686,5.037,20098
5.687,5.037,20098
5.688,5.010,20098
5.689,4.793,20098
5.690,3.422,20098
5.691,1.913,19990
5.692,0.198,19990
5.693,-1.942,19990
5.694,-4.072,19990
5.695,-5.120,19990
5.696,-5.120,19990
5.697,-5.120,19990
5.698,-5.120,19990
5.699,-5.008,19990
5.700,-2.578,19811
5.701,1.238,19811
5.702,3.598,19811
5.703,5.032,19811
5.704,5.048,19811
5.705,5.032,19811
5.706,5.020,19811
5.707,4.793,19811
5.708,3.467,19811
5.709,1.942,19710
5.710,0.228,19710
5.711,-1.945,19710
5.712,-4.093,19710
5.713,-5.120,19710
5.714,-5.120,19710
5.715,-5.120,19710
5.716,-5.120,19710
5.717,-5.008,19710
5.718,-4.088,19710
5.719,-2.803,19644
5.720,1.450,19644
5.721,3.627,19644
5.722,5.035,19644
5.723,5.048,19644
5.724,5.072,19644
5.725,5.013,19644
5.726,4.815,19644
5.727,3.473,19644
5.728,1.942,19639
5.729,0.210,19639
5.730,-1.940,19639
5.731,-4.085,19639
5.732,-5.120,19639
5.733,-5.120,19639
5.734,-5.120,19639
5.735,-5.120,19639
5.736,-4.990,19639
5.737,-4.082,19639
5.738,-2.783,19682
5.739,-0.963,19682
5.740,4.112,19682
5.741,5.037,19682
5.742,5.037,19682
5.743,5.037,19682
5.744,5.015,19682
5.745,4.742,19682
5.746,3.460,19682
5.747,1.968,19744
5.748,0.258,19744
5.749,-1.855,19744
5.750,-4.072,19744
5.751,-5.120,19744
5.752,-5.120,19744
5.753,-5.120,19744
5.754,-5.120,19744
5.755,-5.005,19744
5.756,-4.098,19744
5.757,-2.817,19827
5.758,-1.095,19827
5.759,1.040,19827
5.760,5.030,19827
5.761,5.032,19827
5.762,5.050,19827
5.763,5.005,19827
5.764,4.768,19827
5.765,3.422,19827
5.766,1.877,19941
5.767,0.152,19941
5.768,-1.972,19941
5.769,-4.098,19941
5.770,-5.120,19941
5.771,-5.120,19941
5.772,-5.120,19941
5.773,-5.120,19941
5.774,-4.982,19941
5.775,-4.067,19941
5.776,-2.785,20059
5.777,-1.050,20059
5.778,1.077,20059
5.779,3.598,20059
5.780,5.050,20059
5.781,5.035,20059
5.782,5.020,20059
5.783,4.777,20059
5.784,3.405,20059
5.785,1.873,20227
5.786,0.147,20227
5.787,-1.990,20227
5.788,-4.112,20227
5.789,-5.120,20227
5.790,-5.120,20227
5.791,-5.120,20227
5.792,-5.120,20227
5.793,-4.982,20227
5.794,-4.067,20227
5.795,-2.772,20432
5.796,-1.042,20432
5.797,1.093,20432
5.798,3.623,20432
5.799,5.037,20432
5.800,5.027,20432
5.801,4.982,20432
5.802,4.598,20432
5.803,3.303,20432
5.804,1.795,20625
5.805,-0.253,20625
5.806,-2.143,20625
5.807,-4.095,20625
5.808,-5.120,20625
5.809,-5.120,20625
5.810,-5.120,20625
5.811,-5.120,20625
5.812,-4.992,20625
5.813,-4.088,20625
5.814,-2.808,20832
5.815,-1.085,20832
5.816,1.070,20832
5.817,3.567,20832
5.818,5.037,20832
5.819,5.062,20832
5.820,5.032,20832
5.821,4.617,20832
5.822,3.375,20832
5.823,1.758,20994
5.824,0.193,20994
5.825,-1.988,20994
5.826,-4.093,20994
5.827,-5.120,20994
5.828,-5.120,20994
5.829,-5.120,20994
5.830,-5.120,20994
5.831,-4.987,20994
5.832,-4.067,20994
5.833,-2.768,21055
5.834,-1.052,21055
5.835,1.135,21055
5.836,3.632,21055
5.837,5.032,21055
5.838,5.035,21055
5.839,5.032,21055
5.840,4.580,21055
5.841,3.413,21055
5.842,1.752,21087
5.843,-2.223,21087
5.844,-4.105,21087
5.845,-5.120,21087
5.846,-5.120,21087
5.847,-5.120,21087
5.848,-5.120,21087
5.849,-4.982,21087
5.850,-4.062,21087
5.851,-2.768,21058
5.852,-1.022,21058
5.853,1.097,21058
5.854,3.625,21058
5.855,5.045,21058
5.856,5.053,21058
5.857,5.030,21058
5.858,5.013,21058
5.859,4.747,21058
5.860,1.620,21065
5.861,-2.487,21065
5.862,-4.272,21065
5.863,-5.120,21065
5.864,-5.120,21065
5.865,-5.120,21065
5.866,-5.120,21065
5.867,-4.978,21065
5.868,-4.053,21065
5.869,-2.752,21072
5.870,-1.005,21072
5.871,1.137,21072
5.872,3.658,21072
5.873,5.030,21072
5.874,5.053,21072
5.875,5.053,21072
5.876,5.018,21072
5.877,4.785,21072
5.878,3.450,21072
5.879,1.917,21112
5.880,-2.348,21112
5.881,-4.103,21112
5.882,-5.120,21112
5.883,-5.120,21112
5.884,-5.120,21112
5.885,-5.120,21112
5.886,-4.982,21112
5.887,-4.062,21112
5.888,-2.775,21162
5.889,-1.015,21162
5.890,1.135,21162
5.891,3.660,21162
5.892,5.032,21162
5.893,5.048,21162
5.894,5.037,21162
5.895,5.022,21162
5.896,4.777,21162
5.897,3.430,21162
5.898,1.907,21188
5.899,0.193,21188
5.900,-4.435,21188
5.901,-5.120,21188
5.902,-5.120,21188
5.903,-5.120,21188
5.904,-5.120,21188
5.905,-4.987,21188
5.906,-4.065,21188
5.907,-2.780,21188
5.908,-1.067,21211
5.909,1.133,21211
5.910,3.627,21211
5.911,5.032,21211
5.912,5.053,21211
5.913,5.037,21211
5.914,5.058,21211
5.915,4.777,21211
5.916,3.422,21211
5.917,1.887,21211
5.918,0.190,21134
5.919,-2.002,21134
5.920,-5.120,21134
5.921,-5.120,21134
5.922,-5.120,21134
5.923,-5.120,21134
5.924,-4.978,21134
5.925,-4.067,21134
5.926,-2.777,21134
5.927,-1.073,21010
5.928,1.113,21010
5.929,3.623,21010
5.930,5.060,21010
5.931,5.048,21010
5.932,5.035,21010
5.933,5.013,21010
5.934,4.753,21010
5.935,3.390,21010
5.936,1.853,21010
5.937,0.140,20832
5.938,-2.225,20832
5.939,-4.255,20832
5.940,-5.120,20832
5.941,-5.120,20832
5.942,-5.120,20832
5.943,-4.942,20832
5.944,-4.082,20832
5.945,-2.805,20832
5.946,-1.097,20670
5.947,1.105,20670
5.948,3.590,20670
5.949,5.030,20670
5.950,5.037,20670
5.951,5.037,20670
5.952,5.010,20670
5.953,4.742,20670
5.954,3.380,20670
5.955,1.855,20670
5.956,0.158,20473
5.957,-2.053,20473
5.958,-4.143,20473
5.959,-5.120,20473
5.960,-5.120,20473
5.961,-5.120,20473
5.962,-4.973,20473
5.963,-4.053,20473
5.964,-2.768,20473
5.965,-1.062,20319
5.966,1.167,20319
5.967,3.638,20319
5.968,5.030,20319
5.969,5.053,20319
5.970,5.037,20319
5.971,5.008,20319
5.972,4.755,20319
5.973,3.380,20319
5.974,1.867,20319
5.975,0.177,20175
5.976,-2.030,20175
5.977,-4.122,20175
5.978,-5.120,20175
5.979,-5.120,20175
5.980,-5.120,20175
5.981,-4.860,20175
5.982,-4.050,20175
5.983,-2.763,20175
5.984,-1.052,20045
5.985,1.153,20045
5.986,3.660,20045
5.987,5.037,20045
5.988,5.048,20045
5.989,5.032,20045
5.990,5.013,20045
5.991,4.782,20045
5.992,3.420,20045
5.993,1.897,20045
5.994,0.212,19942
5.995,-1.988,19942
5.996,-4.098,19942
5.997,-5.120,19942
5.998,-5.120,19942
5.999,-5.120,19942
6.000,-4.853,19942
6.001,-3.893,19942
6.002,-2.507,19942
6.003,-0.882,19886
6.004,4.018,19886
6.005,5.032,19886
6.006,5.048,19886
6.007,5.048,19886
6.008,5.018,19886
6.009,4.798,19886
6.010,3.445,19886
6.011,1.915,19886
6.012,0.215,19918
6.013,-2.002,19918
6.014,-4.095,19918
6.015,-5.120,19918
6.016,-5.120,19918
6.017,-5.120,19918
6.018,-5.120,19918
6.019,-4.982,19918
6.020,-2.518,19918
6.021,1.327,19974
6.022,3.665,19974
6.023,5.065,19974
6.024,5.088,19974
6.025,5.048,19974
6.026,5.020,19974
6.027,4.758,19974
6.028,3.277,19974
6.029,1.863,19974
6.030,0.177,19985
6.031,-2.025,19985
6.032,-4.138,19985
6.033,-5.120,19985
6.034,-5.120,19985
6.035,-5.120,19985
6.036,-4.975,19985
6.037,-4.048,19985
6.038,-2.748,19985
6.039,-1.022,20058
6.040,4.188,20058
6.041,5.048,20058
6.042,5.050,20058
6.043,5.032,20058
6.044,5.013,20058
6.045,4.780,20058
6.046,3.422,20058
6.047,1.897,20058
6.048,0.203,20119
6.049,-2.013,20119
6.050,-4.103,20119
6.051,-5.120,20119
6.052,-5.120,20119
6.053,-5.120,20119
6.054,-5.120,20119
6.055,-4.963,20119
6.056,-4.027,20119
6.057,-2.737,20119
6.058,-1.018,20127
6.059,1.180,20127
6.060,4.992,20127
6.061,5.037,20127
6.062,5.048,20127
6.063,5.022,20127
6.064,4.777,20127
6.065,3.433,20127
6.066,1.907,20127
6.067,0.210,20107
6.068,-2.007,20107
6.069,-4.107,20107
6.070,-5.120,20107
6.071,-5.120,20107
6.072,-5.120,20107
6.073,-5.120,20107
6.074,-4.973,20107
6.075,-4.050,20107
6.076,-2.748,20107
6.077,-1.032,20113
6.078,1.147,20113
6.079,3.663,20113
6.080,5.048,20113
6.081,5.037,20113
6.082,5.018,20113
6.083,4.758,20113
6.084,3.395,20113
6.085,1.893,20113
6.086,0.190,20178
6.087,-2.022,20178
6.088,-4.098,20178
6.089,-5.120,20178
6.090,-5.120,20178
6.091,-5.120,20178
6.092,-5.120,20178
6.093,-4.950,20178
6.094,-4.022,20178
6.095,-2.708,20178
6.096,-0.988,20213
6.097,1.212,20213
6.098,3.743,20213
6.099,5.032,20213
6.100,5.035,20213
6.101,5.008,20213
6.102,4.747,20213
6.103,3.417,20213
6.104,1.903,20213
6.105,0.217,20274
6.106,-2.025,20274
6.107,-4.110,20274
6.108,-5.120,20274
6.109,-5.120,20274
6.110,-5.120,20274
6.111,-5.120,20274
6.112,-4.963,20274
6.113,-4.032,20274
6.114,-2.728,20274
6.115,-1.002,20370
6.116,1.190,20370
6.117,3.740,20370
6.118,5.030,20370
6.119,5.080,20370
6.120,4.997,20370
6.121,4.772,20370
6.122,3.413,20370
6.123,1.903,20370
6.124,0.113,20375
6.125,-2.030,20375
6.126,-4.103,20375
6.127,-5.120,20375
6.128,-5.120,20375
6.129,-5.120,20375
6.130,-5.120,20375
6.131,-4.968,20375
6.132,-4.040,20375
6.133,-2.732,20375
6.134,-1.008,20330
6.135,1.212,20330
6.136,3.768,20330
6.137,5.048,20330
6.138,5.048,20330
6.139,5.048,20330
6.140,4.588,20330
6.141,3.410,20330
6.142,1.897,20330
6.143,0.212,20240
6.144,-2.002,20240
6.145,-4.088,20240
6.146,-5.120,20240
6.147,-5.120,20240
6.148,-5.120,20240
6.149,-5.120,20240
6.150,-4.973,20240
6.151,-4.040,20240
6.152,-2.732,20240
6.153,-1.018,20221
6.154,1.183,20221
6.155,3.710,20221
6.156,5.032,20221
6.157,5.058,20221
6.158,5.032,20221
6.159,5.013,20221
6.160,3.143,20221
6.161,1.645,20221
6.162,0.087,20312
6.163,-4.300,20312
6.164,-5.120,20312
6.165,-5.120,20312
6.166,-5.120,20312
6.167,-5.120,20312
6.168,-4.963,20312
6.169,-4.022,20312
6.170,-2.703,20312
6.171,-0.983,20553
6.172,1.218,20553
6.173,3.768,20553
6.174,5.035,20553
6.175,5.060,20553
6.176,5.045,20553
6.177,5.020,20553
6.178,4.742,20553
6.179,3.377,20553
6.180,-0.175,20828
6.181,-4.487,20828
6.182,-5.120,20828
6.183,-5.120,20828
6.184,-5.120,20828
6.185,-5.120,20828
6.186,-4.890,20828
6.187,-4.030,20828
6.188,-2.740,20828
6.189,-1.018,20828
6.190,1.147,21139
6.191,3.735,21139
6.192,5.032,21139
6.193,5.058,21139
6.194,5.032,21139
6.195,5.018,21139
6.196,4.760,21139
6.197,3.410,21139
6.198,1.887,21139
6.199,0.177,21139
6.200,-4.500,21435
6.201,-5.120,21435
6.202,-5.120,21435
6.203,-5.120,21435
6.204,-4.907,21435
6.205,-3.882,21435
6.206,-2.447,21435
6.207,-0.833,21700
6.208,1.180,21700
6.209,3.675,21700
6.210,5.048,21700
6.211,5.048,21700
6.212,5.072,21700
6.213,5.008,21700
6.214,4.747,21700
6.215,3.380,21700
6.216,1.850,21700
6.217,0.138,21700
6.218,-2.030,21896
6.219,-4.282,21896
6.220,-5.120,21896
6.221,-5.120,21896
6.222,-4.965,21896
6.223,-4.003,21896
6.224,-2.703,21896
6.225,-0.973,21896
6.226,1.198,21909
6.227,3.888,21909
6.228,5.053,21909
6.229,5.050,21909
6.230,5.037,21909
6.231,5.015,21909
6.232,4.747,21909
6.233,3.377,21909
6.234,1.860,21909
6.235,0.147,21909
6.236,-2.033,21903
6.237,-4.178,21903
6.238,-5.120,21903
6.239,-5.120,21903
6.240,-5.120,21903
6.241,-4.827,21903
6.242,-3.770,21903
6.243,-2.623,21903
6.244,-0.752,21903
6.245,1.580,21834
6.246,5.055,21834
6.247,5.053,21834
6.248,5.035,21834
6.249,5.008,21834
6.250,4.745,21834
6.251,3.357,21834
6.252,1.837,21834
6.253,0.138,21834
6.254,-2.047,21711
6.255,-4.202,21711
6.256,-5.120,21711
6.257,-5.120,21711
6.258,-5.120,21711
6.259,-5.120,21711
6.260,-3.842,21711
6.261,-2.487,21711
6.262,-0.623,21711
6.263,1.597,21658
6.264,5.043,21658
6.265,5.058,21658
6.266,5.032,21658
6.267,5.022,21658
6.268,4.750,21658
6.269,3.377,21658
6.270,1.847,21658
6.271,0.147,21658
6.272,-2.018,21566
6.273,-4.178,21566
6.274,-5.120,21566
6.275,-5.120,21566
6.276,-5.120,21566
6.277,-5.120,21566
6.278,-4.950,21566
6.279,-4.015,21566
6.280,-0.625,21566
6.281,1.570,21450
6.282,5.048,21450
6.283,5.058,21450
6.284,5.048,21450
6.285,5.022,21450
6.286,4.750,21450
6.287,3.382,21450
6.288,1.857,21450
6.289,0.135,21450
6.290,-2.042,21296
6.291,-4.188,21296
6.292,-5.120,21296
6.293,-5.120,21296
6.294,-5.120,21296
6.295,-5.120,21296
6.296,-4.940,21296
6.297,-4.008,21296
6.298,-2.697,21296
6.299,-0.970,21296
6.300,4.310,21089
6.301,5.037,21089
6.302,5.077,21089
6.303,5.053,21089
6.304,4.772,21089
6.305,3.405,21089
6.306,1.870,21089
6.307,-0.018,21089
6.308,-2.027,20827
6.309,-4.192,20827
6.310,-5.120,20827
6.311,-5.120,20827
6.312,-5.120,20827
6.313,-5.120,20827
6.314,-4.942,20827
6.315,-3.928,20827
6.316,-2.572,20827
6.317,-0.782,20827
6.318,1.228,20531
6.319,3.930,20531
6.320,5.048,20531
6.321,5.048,20531
6.322,5.013,20531
6.323,4.755,20531
6.324,3.377,20531
6.325,1.853,20531
6.326,0.128,20531
6.327,-2.053,20272
6.328,-4.202,20272
6.329,-5.120,20272
6.330,-5.120,20272
6.331,-5.120,20272
6.332,-5.120,20272
6.333,-4.947,20272
6.334,-4.018,20272
6.335,-2.708,20272
6.336,-0.988,20272
6.337,1.192,20077
6.338,3.815,20077
6.339,5.032,20077
6.340,5.032,20077
6.341,4.628,20077
6.342,3.380,20077
6.343,1.855,20077
6.344,0.147,20077
6.345,-2.033,19950
6.346,-4.207,19950
6.347,-5.120,19950
6.348,-5.120,19950
6.349,-5.120,19950
6.350,-5.120,19950
6.351,-4.963,19950
6.352,-4.022,19950
6.353,-2.723,19950
6.354,-1.002,19950
6.355,1.173,19909
6.356,3.768,19909
6.357,5.048,19909
6.358,5.055,19909
6.359,5.037,19909
6.360,4.518,19909
6.361,3.328,19909
6.362,1.820,19909
6.363,0.100,19909
6.364,-2.087,19928
6.365,-4.253,19928
6.366,-5.120,19928
6.367,-5.120,19928
6.368,-5.120,19928
6.369,-5.120,19928
6.370,-4.872,19928
6.371,-3.987,19928
6.372,-2.672,19928
6.373,-0.940,19928
6.374,1.222,19987
6.375,3.797,19987
6.376,5.003,19987
6.377,5.053,19987
6.378,5.037,19987
6.379,5.018,19987
6.380,3.098,19987
6.381,1.552,19987
6.382,0.090,19987
6.383,-2.085,20144
6.384,-4.223,20144
6.385,-5.120,20144
6.386,-5.120,20144
6.387,-5.120,20144
6.388,-5.120,20144
6.389,-4.935,20144
6.390,-3.982,20144
6.391,-2.667,20144
6.392,-0.927,20144
6.393,1.232,20224
6.394,3.873,20224
6.395,5.062,20224
6.396,5.053,20224
6.397,5.037,20224
6.398,5.035,20224
6.399,4.742,20224
6.400,1.583,20224
6.401,0.110,20224
6.402,-2.047,20371
6.403,-4.213,20371
6.404,-5.120,20371
6.405,-5.120,20371
6.406,-5.120,20371
6.407,-5.120,20371
6.408,-4.902,20371
6.409,-4.005,20371
6.410,-2.685,20371
6.411,-0.943,20371
6.412,1.222,20453
6.413,3.812,20453
6.414,5.072,20453
6.415,5.048,20453
6.416,5.053,20453
6.417,5.008,20453
6.418,4.728,20453
6.419,3.333,20453
6.420,-0.255,20453
6.421,-2.107,20534
6.422,-4.255,20534
6.423,-5.120,20534
6.424,-5.120,20534
6.425,-5.120,20534
6.426,-5.120,20534
6.427,-4.935,20534
6.428,-4.003,20534
6.429,-2.685,20534
6.430,-0.925,20534
6.431,1.232,20697
6.432,3.873,20697
6.433,5.048,20697
6.434,5.037,20697
6.435,5.055,20697
6.436,5.022,20697
6.437,4.718,20697
6.438,3.312,20697
6.439,1.808,20697
6.440,-2.473,20874
6.441,-5.120,20874
6.442,-5.120,20874
6.443,-5.120,20874
6.444,-5.120,20874
6.445,-4.942,20874
6.446,-4.008,20874
6.447,-2.692,20874
6.448,-0.943,20874
6.449,1.220,20874
6.450,3.788,21148
6.451,5.037,21148
6.452,5.058,21148
6.453,5.050,21148
6.454,5.018,21148
6.455,4.718,21148
6.456,3.348,21148
6.457,1.833,21148
6.458,0.113,21148
6.459,-2.062,21148
6.460,-5.120,21422
6.461,-5.120,21422
6.462,-5.120,21422
6.463,-4.940,21422
6.464,-4.005,21422
6.465,-2.688,21422
6.466,-0.927,21422
6.467,1.228,21422
6.468,3.797,21768
6.469,5.037,21768
6.470,5.048,21768
6.471,5.048,21768
6.472,5.005,21768
6.473,4.707,21768
6.474,3.303,21768
6.475,1.792,21768
6.476,0.077,21768
6.477,-2.127,21768
6.478,-4.223,22060
6.479,-5.120,22060
6.480,-5.120,22060
6.481,-5.120,22060
6.482,-4.940,22060
6.483,-3.987,22060
6.484,-2.683,22060
6.485,-0.935,22060
6.486,1.252,22060
6.487,3.822,22221
6.488,5.053,22221
6.489,5.058,22221
6.490,5.048,22221
6.491,5.020,22221
6.492,4.742,22221
6.493,3.342,22221
6.494,1.827,22221
6.495,0.107,22221
6.496,-2.092,22221
6.497,-4.205,22311
6.498,-5.120,22311
6.499,-5.120,22311
6.500,-5.120,22311
6.501,-4.923,22311
6.502,-3.967,22311
6.503,-2.655,22311
6.504,-0.802,22311
6.505,1.268,22311
6.506,3.868,22285
6.507,5.077,22285
6.508,5.077,22285
6.509,5.045,22285
6.510,5.018,22285
6.511,4.737,22285
6.512,3.348,22285
6.513,1.830,22285
6.514,0.107,22285
6.515,-2.098,22285
6.516,-4.213,22195
6.517,-5.120,22195
6.518,-5.120,22195
6.519,-5.120,22195
6.520,-4.812,22195
6.521,-3.982,22195
6.522,-2.667,22195
6.523,-0.910,22195
6.524,1.262,22195
6.525,3.873,22029
6.526,5.053,22029
6.527,5.050,22029
6.528,5.037,22029
6.529,5.005,22029
6.530,4.737,22029
6.531,3.345,22029
6.532,1.827,22029
6.533,0.110,22029
6.534,-2.087,22029
6.535,-4.207,21840
6.536,-5.120,21840
6.537,-5.120,21840
6.538,-5.120,21840
6.539,-5.120,21840
6.540,-3.777,21840
6.541,-2.663,21840
6.542,-0.902,21840
6.543,1.255,21840
6.544,3.828,21661
6.545,5.037,21661
6.546,5.037,21661
6.547,5.037,21661
6.548,4.997,21661
6.549,4.713,21661
6.550,3.328,21661
6.551,1.815,21661
6.552,0.077,21661
6.553,-2.120,21661
6.554,-4.230,21526
6.555,-5.120,21526
6.556,-5.120,21526
6.557,-5.120,21526
6.558,-5.120,21526
6.559,-4.940,21526
6.560,-2.428,21526
6.561,-0.932,21526
6.562,1.238,21526
6.563,3.817,21332
6.564,5.032,21332
6.565,5.048,21332
6.566,5.037,21332
6.567,5.018,21332
6.568,4.713,21332
6.569,3.317,21332
6.570,1.808,21332
6.571,0.095,21332
6.572,-2.098,21332
6.573,-4.213,21206
6.574,-5.120,21206
6.575,-5.120,21206
6.576,-5.120,21206
6.577,-5.120,21206
6.578,-4.928,21206
6.579,-3.973,21206
6.580,-0.545,21206
6.581,1.452,21206
6.582,4.218,21018
6.583,5.058,21018
6.584,5.035,21018
6.585,5.008,21018
6.586,4.707,21018
6.587,2.938,21018
6.588,1.758,21018
6.589,0.062,21018
6.590,-2.132,21018
6.591,-4.242,20855
6.592,-5.120,20855
6.593,-5.120,20855
6.594,-5.120,20855
6.595,-5.120,20855
6.596,-4.918,20855
6.597,-3.953,20855
6.598,-2.638,20855
6.599,-0.892,20855
6.600,4.397,20761
6.601,5.088,20761
6.602,5.035,20761
6.603,5.015,20761
6.604,4.700,20761
6.605,3.268,20761
6.606,1.792,20761
6.607,0.068,20761
6.608,-2.132,20761
6.609,-4.237,20642
6.610,-5.120,20642
6.611,-5.120,20642
6.612,-5.120,20642
6.613,-5.120,20642
6.614,-4.933,20642
6.615,-3.987,20642
6.616,-2.685,20642
6.617,-0.938,20642
6.618,1.248,20642
6.619,3.850,20589
6.620,5.053,20589
6.621,5.048,20589
6.622,5.013,20589
6.623,4.690,20589
6.624,3.280,20589
6.625,1.782,20589
6.626,0.048,20589
6.627,-2.147,20589
6.628,-4.263,20517
6.629,-5.120,20517
6.630,-5.120,20517
6.631,-5.120,20517
6.632,-5.120,20517
6.633,-4.940,20517
6.634,-3.987,20517
6.635,-2.667,20517
6.636,-0.927,20517
6.637,1.248,20517
6.638,3.868,20486
6.639,5.035,20486
6.640,5.030,20486
6.641,5.008,20486
6.642,4.688,20486
6.643,3.158,20486
6.644,1.790,20486
6.645,0.072,20486
6.646,-2.120,20486
6.647,-4.230,20498
6.648,-5.120,20498
6.649,-5.120,20498
6.650,-5.120,20498
6.651,-5.120,20498
6.652,-4.907,20498
6.653,-3.953,20498
6.654,-2.627,20498
6.655,-0.863,20498
6.656,1.323,20498
6.657,3.928,20554
6.658,5.060,20554
6.659,5.048,20554
6.660,5.003,20554
6.661,4.550,20554
6.662,2.973,20554
6.663,1.623,20554
6.664,-0.182,20554
6.665,-2.567,20554
6.666,-4.463,20683
6.667,-5.120,20683
6.668,-5.120,20683
6.669,-5.120,20683
6.670,-4.900,20683
6.671,-3.928,20683
6.672,-2.607,20683
6.673,-0.815,20683
6.674,1.393,20683
6.675,4.050,20806
6.676,5.050,20806
6.677,5.050,20806
6.678,5.048,20806
