Czas(s),EKG_Surowe(mV),PPG_Surowe(ADC)
0.000,-0.169,3065
0.001,-0.124,3065
0.002,-0.089,3065
0.003,-0.064,3065
0.004,-0.051,3065
0.005,-0.046,3065
0.006,-0.051,3067
0.007,-0.071,3067
0.008,-0.101,3067
0.009,-0.134,3067
0.010,-0.174,3067
0.011,-0.211,3067
0.012,-0.244,3067
0.013,-0.265,3067
0.014,-0.271,3067
0.015,-0.269,3067
0.016,-0.256,3068
0.017,-0.231,3068
0.018,-0.206,3068
0.019,-0.172,3068
0.020,-0.091,3068
0.021,-0.064,3068
0.022,-0.034,3068
0.023,-0.025,3068
0.024,-0.020,3068
0.025,-0.030,3075
0.026,-0.048,3075
0.027,-0.069,3075
0.028,-0.095,3075
0.029,-0.129,3075
0.030,-0.161,3075
0.031,-0.186,3075
0.032,-0.206,3075
0.033,-0.217,3075
0.034,-0.226,3075
0.035,-0.216,3072
0.036,-0.196,3072
0.037,-0.171,3072
0.038,-0.134,3072
0.039,-0.094,3072
0.040,-0.014,3072
0.041,-0.006,3072
0.042,0.034,3072
0.043,0.044,3072
0.044,0.036,3079
0.045,0.019,3079
0.046,-0.021,3079
0.047,-0.055,3079
0.048,-0.098,3079
0.049,-0.136,3079
0.050,-0.175,3079
0.051,-0.201,3079
0.052,-0.210,3079
0.053,-0.212,3079
0.054,-0.203,3072
0.055,-0.181,3072
0.056,-0.147,3072
0.057,-0.114,3072
0.058,-0.083,3072
0.059,-0.049,3072
0.060,-0.009,3072
0.061,-0.004,3072
0.062,-0.009,3072
0.063,-0.021,3089
0.064,-0.048,3089
0.065,-0.074,3089
0.066,-0.110,3089
0.067,-0.149,3089
0.068,-0.191,3089
0.069,-0.229,3089
0.070,-0.261,3089
0.071,-0.276,3089
0.072,-0.287,3089
0.073,-0.285,3096
0.074,-0.270,3096
0.075,-0.254,3096
0.076,-0.229,3096
0.077,-0.204,3096
0.078,-0.181,3096
0.079,-0.146,3096
0.080,-0.106,3096
0.081,-0.101,3096
0.082,-0.106,3090
0.083,-0.121,3090
0.084,-0.144,3090
0.085,-0.177,3090
0.086,-0.214,3090
0.087,-0.251,3090
0.088,-0.276,3090
0.089,-0.299,3090
0.090,-0.321,3090
0.091,-0.328,3090
0.092,-0.325,3095
0.093,-0.309,3095
0.094,-0.286,3095
0.095,-0.256,3095
0.096,-0.221,3095
0.097,-0.189,3095
0.098,-0.161,3095
0.099,-0.134,3095
0.100,-0.129,3095
0.101,-0.131,3106
0.102,-0.174,3106
0.103,-0.226,3106
0.104,-0.246,3106
0.105,-0.281,3106
0.106,-0.320,3106
0.107,-0.346,3106
0.108,-0.366,3106
0.109,-0.371,3106
0.110,-0.364,3075
0.111,-0.341,3075
0.112,-0.311,3075
0.113,-0.274,3075
0.114,-0.234,3075
0.115,-0.196,3075
0.116,-0.166,3075
0.117,-0.134,3075
0.118,-0.111,3075
0.119,-0.104,3075
0.120,-0.128,3099
0.121,-0.196,3099
0.122,-0.241,3099
0.123,-0.281,3099
0.124,-0.314,3099
0.125,-0.344,3099
0.126,-0.351,3099
0.127,-0.356,3099
0.128,-0.349,3088
0.129,-0.328,3088
0.130,-0.291,3088
0.131,-0.254,3088
0.132,-0.214,3088
0.133,-0.174,3088
0.134,-0.144,3088
0.135,-0.124,3088
0.136,-0.109,3088
0.137,-0.107,3088
0.138,-0.121,3095
0.139,-0.142,3095
0.140,-0.214,3095
0.141,-0.246,3095
0.142,-0.274,3095
0.143,-0.306,3095
0.144,-0.331,3095
0.145,-0.346,3095
0.146,-0.346,3095
0.147,-0.340,3074
0.148,-0.314,3074
0.149,-0.285,3074
0.150,-0.250,3074
0.151,-0.211,3074
0.152,-0.184,3074
0.153,-0.164,3074
0.154,-0.146,3074
0.155,-0.146,3074
0.156,-0.150,3074
0.157,-0.169,3085
0.158,-0.193,3085
0.159,-0.231,3085
0.160,-0.330,3085
0.161,-0.365,3085
0.162,-0.401,3085
0.163,-0.425,3085
0.164,-0.434,3085
0.165,-0.441,3085
0.166,-0.414,3069
0.167,-0.376,3069
0.168,-0.331,3069
0.169,-0.271,3069
0.170,-0.204,3069
0.171,-0.129,3069
0.172,-0.046,3069
0.173,0.039,3069
0.174,0.119,3069
0.175,0.207,3069
0.176,0.296,3079
0.177,0.384,3079
0.178,0.468,3079
0.179,0.554,3079
0.180,0.755,3079
0.181,0.839,3079
0.182,0.954,3079
0.183,1.091,3079
0.184,1.249,3079
0.185,1.431,3079
0.186,1.633,3070
0.187,1.861,3070
0.188,2.079,3070
0.189,2.294,3070
0.190,2.456,3070
0.191,2.545,3070
0.192,2.559,3070
0.193,2.530,3070
0.194,2.430,3070
0.195,2.264,3070
0.196,2.034,3072
0.197,1.784,3072
0.198,1.518,3072
0.199,1.254,3072
0.200,0.734,3072
0.201,0.545,3072
0.202,0.344,3072
0.203,0.172,3072
0.204,0.029,3072
0.205,-0.090,3067
0.206,-0.181,3067
0.207,-0.244,3067
0.208,-0.284,3067
0.209,-0.311,3067
0.210,-0.334,3067
0.211,-0.351,3067
0.212,-0.364,3067
0.213,-0.383,3067
0.214,-0.409,3067
0.215,-0.441,3070
0.216,-0.474,3070
0.217,-0.514,3070
0.218,-0.551,3070
0.219,-0.585,3070
0.220,-0.626,3070
0.221,-0.629,3070
0.222,-0.621,3070
0.223,-0.604,3070
0.224,-0.573,3059
0.225,-0.534,3059
0.226,-0.494,3059
0.227,-0.446,3059
0.228,-0.425,3059
0.229,-0.355,3059
0.230,-0.324,3059
0.231,-0.291,3059
0.232,-0.281,3059
0.233,-0.281,3059
0.234,-0.289,3060
0.235,-0.321,3060
0.236,-0.344,3060
0.237,-0.376,3060
0.238,-0.414,3060
0.239,-0.449,3060
0.240,-0.486,3060
0.241,-0.489,3060
0.242,-0.474,3060
0.243,-0.455,3061
0.244,-0.429,3061
0.245,-0.391,3061
0.246,-0.354,3061
0.247,-0.309,3061
0.248,-0.271,3061
0.249,-0.245,3061
0.250,-0.229,3061
0.251,-0.228,3061
0.252,-0.244,3061
0.253,-0.264,3070
0.254,-0.286,3070
0.255,-0.311,3070
0.256,-0.347,3070
0.257,-0.379,3070
0.258,-0.414,3070
0.259,-0.434,3070
0.260,-0.453,3070
0.261,-0.453,3070
0.262,-0.445,3076
0.263,-0.425,3076
0.264,-0.388,3076
0.265,-0.354,3076
0.266,-0.321,3076
0.267,-0.291,3076
0.268,-0.269,3076
0.269,-0.255,3076
0.270,-0.254,3076
0.271,-0.264,3076
0.272,-0.281,3067
0.273,-0.304,3067
0.274,-0.334,3067
0.275,-0.370,3067
0.276,-0.403,3067
0.277,-0.429,3067
0.278,-0.450,3067
0.279,-0.456,3067
0.280,-0.434,3067
0.281,-0.412,3071
0.282,-0.369,3071
0.283,-0.331,3071
0.284,-0.291,3071
0.285,-0.261,3071
0.286,-0.225,3071
0.287,-0.204,3071
0.288,-0.189,3071
0.289,-0.186,3071
0.290,-0.196,3071
0.291,-0.223,3066
0.292,-0.250,3066
0.293,-0.284,3066
0.294,-0.312,3066
0.295,-0.347,3066
0.296,-0.371,3066
0.297,-0.390,3066
0.298,-0.406,3066
0.299,-0.406,3066
0.300,-0.372,3086
0.301,-0.314,3086
0.302,-0.276,3086
0.303,-0.244,3086
0.304,-0.211,3086
0.305,-0.193,3086
0.306,-0.176,3086
0.307,-0.175,3086
0.308,-0.184,3086
0.309,-0.204,3064
0.310,-0.230,3064
0.311,-0.266,3064
0.312,-0.297,3064
0.313,-0.334,3064
0.314,-0.356,3064
0.315,-0.376,3064
0.316,-0.386,3064
0.317,-0.378,3064
0.318,-0.365,3064
0.319,-0.338,3096
0.320,-0.251,3096
0.321,-0.209,3096
0.322,-0.169,3096
0.323,-0.130,3096
0.324,-0.104,3096
0.325,-0.086,3096
0.326,-0.091,3096
0.327,-0.111,3099
0.328,-0.139,3099
0.329,-0.171,3099
0.330,-0.209,3099
0.331,-0.250,3099
0.332,-0.286,3099
0.333,-0.309,3099
0.334,-0.323,3099
0.335,-0.321,3099
0.336,-0.296,3099
0.337,-0.271,3096
0.338,-0.246,3096
0.339,-0.210,3096
0.340,-0.141,3096
0.341,-0.122,3096
0.342,-0.105,3096
0.343,-0.094,3096
0.344,-0.094,3096
0.345,-0.104,3096
0.346,-0.115,3084
0.347,-0.144,3084
0.348,-0.170,3084
0.349,-0.196,3084
0.350,-0.226,3084
0.351,-0.254,3084
0.352,-0.273,3084
0.353,-0.281,3084
0.354,-0.276,3084
0.355,-0.268,3084
0.356,-0.247,3093
0.357,-0.214,3093
0.358,-0.184,3093
0.359,-0.146,3093
0.360,-0.072,3093
0.361,-0.031,3093
0.362,-0.029,3093
0.363,-0.026,3093
0.364,-0.046,3101
0.365,-0.074,3101
0.366,-0.109,3101
0.367,-0.145,3101
0.368,-0.184,3101
0.369,-0.221,3101
0.370,-0.250,3101
0.371,-0.265,3101
0.372,-0.264,3101
0.373,-0.249,3101
0.374,-0.216,3095
0.375,-0.188,3095
0.376,-0.146,3095
0.377,-0.102,3095
0.378,-0.065,3095
0.379,-0.034,3095
0.380,0.022,3095
0.381,0.024,3095
0.382,-0.029,3095
0.383,-0.004,3088
0.384,-0.031,3088
0.385,-0.055,3088
0.386,-0.091,3088
0.387,-0.126,3088
0.388,-0.152,3088
0.389,-0.176,3088
0.390,-0.181,3088
0.391,-0.176,3088
0.392,-0.164,3088
0.393,-0.136,3085
0.394,-0.106,3085
0.395,-0.069,3085
0.396,-0.034,3085
0.397,0.010,3085
0.398,0.039,3085
0.399,0.065,3085
0.400,0.074,3085
0.401,0.065,3085
0.402,0.044,3083
0.403,0.010,3083
0.404,-0.026,3083
0.405,-0.062,3083
0.406,-0.101,3083
0.407,-0.136,3083
0.408,-0.171,3083
0.409,-0.189,3083
0.410,-0.190,3083
0.411,-0.177,3083
0.412,-0.149,3086
0.413,-0.114,3086
0.414,-0.074,3086
0.415,-0.034,3086
0.416,0.009,3086
0.417,0.035,3086
0.418,0.054,3086
0.419,0.064,3086
0.420,0.051,3086
0.421,0.035,3086
0.422,0.010,3086
0.423,-0.026,3086
0.424,-0.064,3086
0.425,-0.104,3086
0.426,-0.141,3086
0.427,-0.166,3086
0.428,-0.177,3086
0.429,-0.180,3086
0.430,-0.166,3086
0.431,-0.141,3086
0.432,-0.110,3075
0.433,-0.070,3075
0.434,-0.034,3075
0.435,-0.007,3075
0.436,0.024,3075
0.437,0.037,3075
0.438,0.040,3075
0.439,0.034,3075
0.440,-0.021,3077
0.441,-0.095,3077
0.442,-0.135,3077
0.443,-0.176,3077
0.444,-0.214,3077
0.445,-0.247,3077
0.446,-0.266,3077
0.447,-0.271,3077
0.448,-0.271,3077
0.449,-0.261,3077
0.450,-0.244,3053
0.451,-0.211,3053
0.452,-0.186,3053
0.453,-0.151,3053
0.454,-0.133,3053
0.455,-0.113,3053
0.456,-0.106,3053
0.457,-0.105,3053
0.458,-0.111,3053
0.459,-0.134,3053
0.460,-0.216,3065
0.461,-0.295,3065
0.462,-0.333,3065
0.463,-0.361,3065
0.464,-0.374,3065
0.465,-0.375,3065
0.466,-0.366,3065
0.467,-0.350,3065
0.468,-0.324,3067
0.469,-0.284,3067
0.470,-0.244,3067
0.471,-0.209,3067
0.472,-0.186,3067
0.473,-0.174,3067
0.474,-0.174,3067
0.475,-0.185,3067
0.476,-0.196,3067
0.477,-0.219,3067
0.478,-0.250,3064
0.479,-0.281,3064
0.480,-0.354,3064
0.481,-0.384,3064
0.482,-0.409,3064
0.483,-0.424,3064
0.484,-0.427,3064
0.485,-0.416,3064
0.486,-0.406,3064
0.487,-0.390,3079
0.488,-0.364,3079
0.489,-0.334,3079
0.490,-0.304,3079
0.491,-0.281,3079
0.492,-0.261,3079
0.493,-0.250,3079
0.494,-0.253,3079
0.495,-0.256,3079
0.496,-0.281,3079
0.497,-0.305,3086
0.498,-0.334,3086
0.499,-0.365,3086
0.500,-0.421,3086
0.501,-0.431,3086
0.502,-0.445,3086
0.503,-0.449,3086
0.504,-0.446,3086
0.505,-0.431,3086
0.506,-0.376,3065
0.507,-0.386,3065
0.508,-0.355,3065
0.509,-0.326,3065
0.510,-0.286,3065
0.511,-0.265,3065
0.512,-0.246,3065
0.513,-0.241,3065
0.514,-0.241,3065
0.515,-0.260,3065
0.516,-0.282,3086
0.517,-0.307,3086
0.518,-0.345,3086
0.519,-0.371,3086
0.520,-0.429,3086
0.521,-0.429,3086
0.522,-0.429,3086
0.523,-0.422,3086
0.524,-0.407,3086
0.525,-0.384,3061
0.526,-0.355,3061
0.527,-0.329,3061
0.528,-0.296,3061
0.529,-0.271,3061
0.530,-0.246,3061
0.531,-0.230,3061
0.532,-0.228,3061
0.533,-0.234,3061
0.534,-0.250,3061
0.535,-0.271,3081
0.536,-0.301,3081
0.537,-0.331,3081
0.538,-0.365,3081
0.539,-0.403,3081
0.540,-0.429,3081
0.541,-0.430,3081
0.542,-0.424,3081
0.543,-0.391,3081
0.544,-0.378,3081
0.545,-0.331,3081
0.546,-0.301,3081
0.547,-0.268,3081
0.548,-0.241,3081
0.549,-0.212,3081
0.550,-0.194,3081
0.551,-0.193,3081
0.552,-0.207,3081
0.553,-0.224,3081
0.554,-0.254,3091
0.555,-0.286,3091
0.556,-0.325,3091
0.557,-0.354,3091
0.558,-0.384,3091
0.559,-0.409,3091
0.560,-0.410,3091
0.561,-0.403,3091
0.562,-0.379,3091
0.563,-0.351,3095
0.564,-0.310,3095
0.565,-0.284,3095
0.566,-0.254,3095
0.567,-0.224,3095
0.568,-0.198,3095
0.569,-0.184,3095
0.570,-0.182,3095
0.571,-0.189,3095
0.572,-0.204,3095
0.573,-0.224,3076
0.574,-0.251,3076
0.575,-0.281,3076
0.576,-0.311,3076
0.577,-0.343,3076
0.578,-0.365,3076
0.579,-0.381,3076
0.580,-0.383,3076
0.581,-0.366,3076
0.582,-0.347,3092
0.583,-0.289,3092
0.584,-0.264,3092
0.585,-0.234,3092
0.586,-0.214,3092
0.587,-0.201,3092
0.588,-0.194,3092
0.589,-0.194,3092
0.590,-0.206,3092
0.591,-0.224,3072
0.592,-0.251,3072
0.593,-0.284,3072
0.594,-0.310,3072
0.595,-0.343,3072
0.596,-0.355,3072
0.597,-0.364,3072
0.598,-0.357,3072
0.599,-0.349,3072
0.600,-0.289,3083
0.601,-0.221,3083
0.602,-0.190,3083
0.603,-0.164,3083
0.604,-0.136,3083
0.605,-0.125,3083
0.606,-0.128,3083
0.607,-0.134,3083
0.608,-0.154,3083
0.609,-0.189,3060
0.610,-0.226,3060
0.611,-0.266,3060
0.612,-0.304,3060
0.613,-0.334,3060
0.614,-0.356,3060
0.615,-0.374,3060
0.616,-0.374,3060
0.617,-0.364,3060
0.618,-0.341,3060
0.619,-0.306,3095
0.620,-0.221,3095
0.621,-0.194,3095
0.622,-0.165,3095
0.623,-0.135,3095
0.624,-0.125,3095
0.625,-0.121,3095
0.626,-0.129,3095
0.627,-0.149,3095
0.628,-0.186,3080
0.629,-0.224,3080
0.630,-0.269,3080
0.631,-0.304,3080
0.632,-0.335,3080
0.633,-0.355,3080
0.634,-0.369,3080
0.635,-0.372,3080
0.636,-0.364,3080
0.637,-0.344,3080
0.638,-0.310,3087
0.639,-0.281,3087
0.640,-0.194,3087
0.641,-0.174,3087
0.642,-0.152,3087
0.643,-0.134,3087
0.644,-0.134,3087
0.645,-0.139,3087
0.646,-0.154,3087
0.647,-0.181,3051
0.648,-0.214,3051
0.649,-0.250,3051
0.650,-0.282,3051
0.651,-0.311,3051
0.652,-0.336,3051
0.653,-0.346,3051
0.654,-0.346,3051
0.655,-0.334,3051
0.656,-0.309,3051
0.657,-0.286,3091
0.658,-0.256,3091
0.659,-0.224,3091
0.660,-0.161,3091
0.661,-0.122,3091
0.662,-0.116,3091
0.663,-0.126,3091
0.664,-0.147,3091
0.665,-0.169,3087
0.666,-0.216,3087
0.667,-0.261,3087
0.668,-0.296,3087
0.669,-0.333,3087
0.670,-0.364,3087
0.671,-0.381,3087
0.672,-0.391,3087
0.673,-0.389,3087
0.674,-0.374,3087
0.675,-0.349,3069
0.676,-0.312,3069
0.677,-0.274,3069
0.678,-0.241,3069
0.679,-0.201,3069
0.680,-0.146,3069
0.681,-0.149,3069
0.682,-0.164,3069
0.683,-0.181,3069
0.684,-0.209,3069
0.685,-0.249,3053
0.686,-0.289,3053
0.687,-0.325,3053
0.688,-0.354,3053
0.689,-0.375,3053
0.690,-0.388,3053
0.691,-0.389,3053
0.692,-0.379,3053
0.693,-0.354,3053
0.694,-0.325,3063
0.695,-0.289,3063
0.696,-0.250,3063
0.697,-0.205,3063
0.698,-0.171,3063
0.699,-0.145,3063
0.700,-0.134,3063
0.701,-0.144,3063
0.702,-0.168,3063
0.703,-0.195,3063
0.704,-0.231,3076
0.705,-0.274,3076
0.706,-0.306,3076
0.707,-0.344,3076
0.708,-0.366,3076
0.709,-0.378,3076
0.710,-0.383,3076
0.711,-0.374,3076
0.712,-0.356,3076
0.713,-0.330,3076
0.714,-0.294,3069
0.715,-0.261,3069
0.716,-0.223,3069
0.717,-0.193,3069
0.718,-0.171,3069
0.719,-0.154,3069
0.720,-0.165,3069
0.721,-0.180,3069
0.722,-0.205,3069
0.723,-0.229,3059
0.724,-0.273,3059
0.725,-0.306,3059
0.726,-0.330,3059
0.727,-0.351,3059
0.728,-0.362,3059
0.729,-0.369,3059
0.730,-0.364,3059
0.731,-0.344,3059
0.732,-0.309,3059
0.733,-0.280,3084
0.734,-0.241,3084
0.735,-0.204,3084
0.736,-0.171,3084
0.737,-0.142,3084
0.738,-0.128,3084
0.739,-0.129,3084
0.740,-0.176,3084
0.741,-0.205,3084
0.742,-0.250,3076
0.743,-0.284,3076
0.744,-0.310,3076
0.745,-0.344,3076
0.746,-0.362,3076
0.747,-0.371,3076
0.748,-0.375,3076
0.749,-0.366,3076
0.750,-0.346,3076
0.751,-0.312,3076
0.752,-0.281,3072
0.753,-0.249,3072
0.754,-0.211,3072
0.755,-0.161,3072
0.756,-0.174,3072
0.757,-0.136,3072
0.758,-0.136,3072
0.759,-0.149,3072
0.760,-0.214,3072
0.761,-0.245,3072
0.762,-0.284,3072
0.763,-0.321,3072
0.764,-0.351,3072
0.765,-0.370,3072
0.766,-0.379,3072
0.767,-0.376,3072
0.768,-0.364,3072
0.769,-0.336,3072
0.770,-0.306,3072
0.771,-0.271,3081
0.772,-0.242,3081
0.773,-0.199,3081
0.774,-0.171,3081
0.775,-0.146,3081
0.776,-0.134,3081
0.777,-0.131,3081
0.778,-0.139,3081
0.779,-0.161,3081
0.780,-0.221,3067
0.781,-0.287,3067
0.782,-0.314,3067
0.783,-0.341,3067
0.784,-0.351,3067
0.785,-0.354,3067
0.786,-0.349,3067
0.787,-0.331,3067
0.788,-0.304,3067
0.789,-0.271,3085
0.790,-0.231,3085
0.791,-0.201,3085
0.792,-0.168,3085
0.793,-0.144,3085
0.794,-0.131,3085
0.795,-0.129,3085
0.796,-0.133,3085
0.797,-0.146,3085
0.798,-0.166,3085
0.799,-0.198,3080
0.800,-0.281,3080
0.801,-0.302,3080
0.802,-0.329,3080
0.803,-0.345,3080
0.804,-0.344,3080
0.805,-0.335,3080
0.806,-0.311,3080
0.807,-0.286,3080
0.808,-0.251,3085
0.809,-0.215,3085
0.810,-0.190,3085
0.811,-0.166,3085
0.812,-0.145,3085
0.813,-0.141,3085
0.814,-0.141,3085
0.815,-0.161,3085
0.816,-0.176,3085
0.817,-0.205,3085
0.818,-0.234,3094
0.819,-0.271,3094
0.820,-0.330,3094
0.821,-0.344,3094
0.822,-0.349,3094
0.823,-0.347,3094
0.824,-0.334,3094
0.825,-0.309,3094
0.826,-0.281,3094
0.827,-0.246,3076
0.828,-0.210,3076
0.829,-0.184,3076
0.830,-0.164,3076
0.831,-0.147,3076
0.832,-0.136,3076
0.833,-0.144,3076
0.834,-0.154,3076
0.835,-0.181,3076
0.836,-0.204,3076
0.837,-0.231,3097
0.838,-0.266,3097
0.839,-0.294,3097
0.840,-0.340,3097
0.841,-0.346,3097
0.842,-0.346,3097
0.843,-0.331,3097
0.844,-0.307,3097
0.845,-0.286,3097
0.846,-0.254,3093
0.847,-0.212,3093
0.848,-0.174,3093
0.849,-0.181,3093
0.850,-0.109,3093
0.851,-0.091,3093
0.852,-0.084,3093
0.853,-0.089,3093
0.854,-0.106,3093
0.855,-0.131,3093
0.856,-0.169,3094
0.857,-0.211,3094
0.858,-0.254,3094
0.859,-0.286,3094
0.860,-0.331,3094
0.861,-0.335,3094
0.862,-0.328,3094
0.863,-0.299,3094
0.864,-0.275,3094
0.865,-0.241,3091
0.866,-0.194,3091
0.867,-0.149,3091
0.868,-0.106,3091
0.869,-0.070,3091
0.870,-0.051,3091
0.871,-0.044,3091
0.872,-0.049,3091
0.873,-0.066,3091
0.874,-0.096,3091
0.875,-0.130,3078
0.876,-0.171,3078
0.877,-0.209,3078
0.878,-0.241,3078
0.879,-0.263,3078
0.880,-0.280,3078
0.881,-0.271,3078
0.882,-0.253,3078
0.883,-0.228,3078
0.884,-0.198,3092
0.885,-0.166,3092
0.886,-0.134,3092
0.887,-0.111,3092
0.888,-0.098,3092
0.889,-0.086,3092
0.890,-0.086,3092
0.891,-0.091,3092
0.892,-0.104,3092
0.893,-0.114,3092
0.894,-0.141,3086
0.895,-0.166,3086
0.896,-0.185,3086
0.897,-0.204,3086
0.898,-0.216,3086
0.899,-0.221,3086
0.900,-0.203,3086
0.901,-0.184,3086
0.902,-0.146,3086
0.903,-0.115,3068
0.904,-0.081,3068
0.905,-0.049,3068
0.906,-0.021,3068
0.907,0.011,3068
0.908,0.021,3068
0.909,0.024,3068
0.910,0.009,3068
0.911,-0.022,3068
0.912,-0.051,3068
0.913,-0.091,3098
0.914,-0.136,3098
0.915,-0.181,3098
0.916,-0.216,3098
0.917,-0.247,3098
0.918,-0.265,3098
0.919,-0.268,3098
0.920,-0.242,3098
0.921,-0.216,3098
0.922,-0.194,3086
0.923,-0.170,3086
0.924,-0.144,3086
0.925,-0.115,3086
0.926,-0.096,3086
0.927,-0.089,3086
0.928,-0.094,3086
0.929,-0.113,3086
0.930,-0.141,3086
0.931,-0.181,3086
0.932,-0.216,3086
0.933,-0.264,3085
0.934,-0.306,3085
0.935,-0.344,3085
0.936,-0.371,3085
0.937,-0.389,3085
0.938,-0.395,3085
0.939,-0.389,3085
0.940,-0.343,3085
0.941,-0.305,3085
0.942,-0.292,3083
0.943,-0.226,3083
0.944,-0.194,3083
0.945,-0.172,3083
0.946,-0.161,3083
0.947,-0.161,3083
0.948,-0.169,3083
0.949,-0.191,3083
0.950,-0.221,3083
0.951,-0.263,3083
0.952,-0.296,3074
0.953,-0.330,3074
0.954,-0.354,3074
0.955,-0.374,3074
0.956,-0.376,3074
0.957,-0.374,3074
0.958,-0.361,3074
0.959,-0.335,3074
0.960,-0.266,3077
0.961,-0.199,3077
0.962,-0.174,3077
0.963,-0.149,3077
0.964,-0.134,3077
0.965,-0.130,3077
0.966,-0.131,3077
0.967,-0.146,3077
0.968,-0.171,3077
0.969,-0.206,3077
0.970,-0.246,3114
0.971,-0.284,3114
0.972,-0.321,3114
0.973,-0.309,3114
0.974,-0.365,3114
0.975,-0.369,3114
0.976,-0.366,3114
0.977,-0.351,3114
0.978,-0.329,3114
0.979,-0.294,3114
0.980,-0.215,3073
0.981,-0.170,3073
0.982,-0.151,3073
0.983,-0.151,3073
0.984,-0.164,3073
0.985,-0.181,3073
0.986,-0.215,3073
0.987,-0.241,3073
0.988,-0.274,3070
0.989,-0.309,3070
0.990,-0.341,3070
0.991,-0.361,3070
0.992,-0.372,3070
0.993,-0.376,3070
0.994,-0.369,3070
0.995,-0.346,3070
0.996,-0.321,3070
0.997,-0.281,3070
0.998,-0.231,3073
0.999,-0.195,3073
1.000,-0.134,3073
1.001,-0.124,3073
1.002,-0.116,3073
1.003,-0.121,3073
1.004,-0.141,3073
1.005,-0.174,3073
1.006,-0.209,3073
1.007,-0.256,3087
1.008,-0.304,3087
1.009,-0.344,3087
1.010,-0.381,3087
1.011,-0.411,3087
1.012,-0.422,3087
1.013,-0.424,3087
1.014,-0.411,3087
1.015,-0.390,3087
1.016,-0.367,3087
1.017,-0.335,3074
1.018,-0.292,3074
1.019,-0.261,3074
1.020,-0.181,3074
1.021,-0.151,3074
1.022,-0.113,3074
1.023,-0.081,3074
1.024,-0.045,3074
1.025,-0.006,3074
1.026,0.048,3079
1.027,0.104,3079
1.028,0.170,3079
1.029,0.254,3079
1.030,0.355,3079
1.031,0.471,3079
1.032,0.606,3079
1.033,0.755,3079
1.034,0.916,3079
1.035,1.099,3079
1.036,1.305,3087
1.037,1.529,3087
1.038,1.769,3087
1.039,2.005,3087
1.040,2.431,3087
1.041,2.526,3087
1.042,2.550,3087
1.043,2.515,3087
1.044,2.416,3087
1.045,2.246,3075
1.046,2.049,3075
1.047,1.835,3075
1.048,1.631,3075
1.049,1.429,3075
1.050,1.234,3075
1.051,1.056,3075
1.052,0.890,3075
1.053,0.729,3075
1.054,0.574,3075
1.055,0.430,3093
1.056,0.296,3093
1.057,0.186,3093
1.058,0.076,3093
1.059,-0.029,3093
1.060,-0.229,3093
1.061,-0.391,3093
1.062,-0.458,3093
1.063,-0.536,3079
1.064,-0.695,3079
1.065,-0.674,3079
1.066,-0.694,3079
1.067,-0.699,3079
1.068,-0.690,3079
1.069,-0.671,3079
1.070,-0.631,3079
1.071,-0.590,3079
1.072,-0.544,3093
1.073,-0.495,3093
1.074,-0.451,3093
1.075,-0.412,3093
1.076,-0.381,3093
1.077,-0.366,3093
1.078,-0.356,3093
1.079,-0.366,3093
1.080,-0.421,3093
1.081,-0.436,3070
1.082,-0.489,3070
1.083,-0.509,3070
1.084,-0.524,3070
1.085,-0.529,3070
1.086,-0.524,3070
1.087,-0.507,3070
1.088,-0.482,3070
1.089,-0.449,3070
1.090,-0.406,3082
1.091,-0.362,3082
1.092,-0.329,3082
1.093,-0.291,3082
1.094,-0.276,3082
1.095,-0.271,3082
1.096,-0.276,3082
1.097,-0.291,3082
1.098,-0.310,3082
1.099,-0.344,3082
1.100,-0.414,3095
1.101,-0.461,3095
1.102,-0.469,3095
1.103,-0.468,3095
1.104,-0.454,3095
1.105,-0.434,3095
1.106,-0.407,3095
1.107,-0.376,3095
1.108,-0.341,3080
1.109,-0.302,3080
1.110,-0.271,3080
1.111,-0.251,3080
1.112,-0.231,3080
1.113,-0.229,3080
1.114,-0.242,3080
1.115,-0.260,3080
1.116,-0.286,3080
1.117,-0.321,3080
1.118,-0.355,3088
1.119,-0.389,3088
1.120,-0.441,3088
1.121,-0.446,3088
1.122,-0.444,3088
1.123,-0.427,3088
1.124,-0.404,3088
1.125,-0.331,3088
1.126,-0.325,3088
1.127,-0.275,3082
1.128,-0.241,3082
1.129,-0.210,3082
1.130,-0.189,3082
1.131,-0.182,3082
1.132,-0.181,3082
1.133,-0.191,3082
1.134,-0.214,3082
1.135,-0.249,3082
1.136,-0.276,3082
1.137,-0.321,3089
1.138,-0.354,3089
1.139,-0.385,3089
1.140,-0.426,3089
1.141,-0.426,3089
1.142,-0.420,3089
1.143,-0.406,3089
1.144,-0.383,3089
1.145,-0.349,3089
1.146,-0.311,3076
1.147,-0.280,3076
1.148,-0.250,3076
1.149,-0.226,3076
1.150,-0.214,3076
1.151,-0.209,3076
1.152,-0.210,3076
1.153,-0.221,3076
1.154,-0.234,3076
1.155,-0.261,3076
1.156,-0.281,3090
1.157,-0.305,3090
1.158,-0.330,3090
1.159,-0.345,3090
1.160,-0.350,3090
1.161,-0.324,3090
1.162,-0.290,3090
1.163,-0.256,3090
1.164,-0.216,3073
1.165,-0.184,3073
1.166,-0.150,3073
1.167,-0.134,3073
1.168,-0.129,3073
1.169,-0.130,3073
1.170,-0.144,3073
1.171,-0.169,3073
1.172,-0.201,3073
1.173,-0.242,3073
1.174,-0.276,3081
1.175,-0.323,3081
1.176,-0.349,3081
1.177,-0.369,3081
1.178,-0.381,3081
1.179,-0.375,3081
1.180,-0.331,3081
1.181,-0.299,3081
1.182,-0.256,3081
1.183,-0.216,3081
1.184,-0.176,3070
1.185,-0.136,3070
1.186,-0.110,3070
1.187,-0.092,3070
1.188,-0.084,3070
1.189,-0.086,3070
1.190,-0.092,3070
1.191,-0.111,3070
1.192,-0.133,3070
1.193,-0.165,3070
1.194,-0.194,3079
1.195,-0.228,3079
1.196,-0.260,3079
1.197,-0.281,3079
1.198,-0.289,3079
1.199,-0.287,3079
1.200,-0.249,3079
1.201,-0.215,3079
1.202,-0.181,3079
1.203,-0.136,3075
1.204,-0.101,3075
1.205,-0.065,3075
1.206,-0.044,3075
1.207,-0.031,3075
1.208,-0.036,3075
1.209,-0.051,3075
1.210,-0.084,3075
1.211,-0.115,3075
1.212,-0.160,3075
1.213,-0.194,3082
1.214,-0.226,3082
1.215,-0.249,3082
1.216,-0.256,3082
1.217,-0.253,3082
1.218,-0.230,3082
1.219,-0.204,3082
1.220,-0.128,3082
1.221,-0.096,3082
1.222,-0.056,3080
1.223,-0.024,3080
1.224,0.009,3080
1.225,0.021,3080
1.226,0.022,3080
1.227,0.013,3080
1.228,-0.007,3080
1.229,-0.035,3080
1.230,-0.064,3080
1.231,-0.101,3080
1.232,-0.133,3048
1.233,-0.166,3048
1.234,-0.181,3048
1.235,-0.189,3048
1.236,-0.185,3048
1.237,-0.171,3048
1.238,-0.144,3048
1.239,-0.109,3048
1.240,-0.026,3070
1.241,0.037,3070
1.242,0.056,3070
1.243,0.069,3070
1.244,0.071,3070
1.245,0.059,3070
1.246,0.044,3070
1.247,0.021,3070
1.248,-0.011,3070
1.249,-0.046,3070
1.250,-0.084,3090
1.251,-0.113,3090
1.252,-0.138,3090
1.253,-0.161,3090
1.254,-0.169,3090
1.255,-0.166,3090
1.256,-0.146,3090
1.257,-0.121,3090
1.258,-0.089,3090
1.259,-0.048,3090
1.260,0.036,3068
1.261,0.079,3068
1.262,0.091,3068
1.263,0.089,3068
1.264,0.070,3068
1.265,0.046,3068
1.266,0.009,3068
1.267,-0.037,3068
1.268,-0.083,3074
1.269,-0.109,3074
1.270,-0.128,3074
1.271,-0.136,3074
1.272,-0.136,3074
1.273,-0.130,3074
1.274,-0.113,3074
1.275,-0.094,3074
1.276,-0.065,3074
1.277,-0.031,3074
1.278,-0.006,3066
1.279,0.024,3066
1.280,0.040,3066
1.281,0.034,3066
1.282,0.019,3066
1.283,-0.013,3066
1.284,-0.044,3066
1.285,-0.081,3066
1.286,-0.114,3066
1.287,-0.151,3085
1.288,-0.188,3085
1.289,-0.211,3085
1.290,-0.221,3085
1.291,-0.216,3085
1.292,-0.206,3085
1.293,-0.185,3085
1.294,-0.161,3085
1.295,-0.126,3085
1.296,-0.101,3085
1.297,-0.081,3081
1.298,-0.062,3081
1.299,-0.050,3081
1.300,-0.062,3081
1.301,-0.081,3081
1.302,-0.106,3081
1.303,-0.144,3081
1.304,-0.190,3081
1.305,-0.233,3081
1.306,-0.276,3095
1.307,-0.310,3095
1.308,-0.335,3095
1.309,-0.351,3095
1.310,-0.351,3095
1.311,-0.344,3095
1.312,-0.326,3095
1.313,-0.296,3095
1.314,-0.269,3095
1.315,-0.231,3095
1.316,-0.206,3085
1.317,-0.185,3085
1.318,-0.170,3085
1.319,-0.164,3085
1.320,-0.182,3085
1.321,-0.203,3085
1.322,-0.226,3085
1.323,-0.264,3085
1.324,-0.304,3085
1.325,-0.344,3110
1.326,-0.374,3110
1.327,-0.403,3110
1.328,-0.411,3110
1.329,-0.414,3110
1.330,-0.406,3110
1.331,-0.383,3110
1.332,-0.357,3110
1.333,-0.329,3110
1.334,-0.291,3110
1.335,-0.265,3096
1.336,-0.241,3096
1.337,-0.216,3096
1.338,-0.209,3096
1.339,-0.209,3096
1.340,-0.249,3096
1.341,-0.269,3096
1.342,-0.335,3096
1.343,-0.330,3096
1.344,-0.366,3111
1.345,-0.393,3111
1.346,-0.421,3111
1.347,-0.430,3111
1.348,-0.432,3111
1.349,-0.429,3111
1.350,-0.410,3111
1.351,-0.385,3111
1.352,-0.356,3111
1.353,-0.326,3111
1.354,-0.286,3104
1.355,-0.260,3104
1.356,-0.234,3104
1.357,-0.229,3104
1.358,-0.229,3104
1.359,-0.246,3104
1.360,-0.304,3104
1.361,-0.331,3104
1.362,-0.362,3104
1.363,-0.391,3087
1.364,-0.421,3087
1.365,-0.441,3087
1.366,-0.448,3087
1.367,-0.445,3087
1.368,-0.430,3087
1.369,-0.406,3087
1.370,-0.369,3087
1.371,-0.329,3087
1.372,-0.286,3087
1.373,-0.254,3085
1.374,-0.226,3085
1.375,-0.215,3085
1.376,-0.191,3085
1.377,-0.194,3085
1.378,-0.209,3085
1.379,-0.229,3085
1.380,-0.287,3085
1.381,-0.349,3091
1.382,-0.401,3091
1.383,-0.411,3091
1.384,-0.414,3091
1.385,-0.405,3091
1.386,-0.384,3091
1.387,-0.356,3091
1.388,-0.326,3091
1.389,-0.286,3091
1.390,-0.255,3091
1.391,-0.229,3091
1.392,-0.207,3091
1.393,-0.199,3091
1.394,-0.196,3091
1.395,-0.205,3091
1.396,-0.224,3091
1.397,-0.246,3091
1.398,-0.274,3091
1.399,-0.304,3091
1.400,-0.366,3079
1.401,-0.404,3079
1.402,-0.407,3079
1.403,-0.407,3079
1.404,-0.386,3079
1.405,-0.364,3079
1.406,-0.328,3079
1.407,-0.285,3079
1.408,-0.244,3087
1.409,-0.204,3087
1.410,-0.174,3087
1.411,-0.161,3087
1.412,-0.146,3087
1.413,-0.151,3087
1.414,-0.164,3087
1.415,-0.175,3087
1.416,-0.196,3087
1.417,-0.226,3087
1.418,-0.261,3093
1.419,-0.294,3093
1.420,-0.352,3093
1.421,-0.366,3093
1.422,-0.366,3093
1.423,-0.351,3093
1.424,-0.331,3093
1.425,-0.302,3093
1.426,-0.266,3093
1.427,-0.231,3093
1.428,-0.204,3084
1.429,-0.176,3084
1.430,-0.166,3084
1.431,-0.164,3084
1.432,-0.172,3084
1.433,-0.195,3084
1.434,-0.226,3084
1.435,-0.291,3084
1.436,-0.301,3084
1.437,-0.336,3084
1.438,-0.366,3082
1.439,-0.384,3082
1.440,-0.384,3082
1.441,-0.367,3082
1.442,-0.344,3082
1.443,-0.306,3082
1.444,-0.276,3082
1.445,-0.244,3082
1.446,-0.210,3082
1.447,-0.185,3086
1.448,-0.163,3086
1.449,-0.145,3086
1.450,-0.141,3086
1.451,-0.146,3086
1.452,-0.171,3086
1.453,-0.201,3086
1.454,-0.231,3086
1.455,-0.264,3086
1.456,-0.291,3086
1.457,-0.311,3072
1.458,-0.325,3072
1.459,-0.329,3072
1.460,-0.309,3072
1.461,-0.295,3072
1.462,-0.282,3072
1.463,-0.264,3072
1.464,-0.241,3072
1.465,-0.164,3072
1.466,-0.191,3049
1.467,-0.174,3049
1.468,-0.171,3049
1.469,-0.170,3049
1.470,-0.184,3049
1.471,-0.205,3049
1.472,-0.229,3049
1.473,-0.261,3049
1.474,-0.289,3049
1.475,-0.321,3049
1.476,-0.343,3063
1.477,-0.356,3063
1.478,-0.366,3063
1.479,-0.364,3063
1.480,-0.330,3063
1.481,-0.302,3063
1.482,-0.270,3063
1.483,-0.228,3063
1.484,-0.191,3063
1.485,-0.150,3062
1.486,-0.124,3062
1.487,-0.110,3062
1.488,-0.106,3062
1.489,-0.114,3062
1.490,-0.131,3062
1.491,-0.166,3062
1.492,-0.204,3062
1.493,-0.246,3062
1.494,-0.290,3062
1.495,-0.333,3055
1.496,-0.365,3055
1.497,-0.384,3055
1.498,-0.384,3055
1.499,-0.375,3055
1.500,-0.324,3055
1.501,-0.281,3055
1.502,-0.246,3055
1.503,-0.209,3055
1.504,-0.181,3056
1.505,-0.161,3056
1.506,-0.142,3056
1.507,-0.141,3056
1.508,-0.149,3056
1.509,-0.169,3056
1.510,-0.194,3056
1.511,-0.228,3056
1.512,-0.266,3056
1.513,-0.301,3056
1.514,-0.331,3064
1.515,-0.351,3064
1.516,-0.366,3064
1.517,-0.367,3064
1.518,-0.361,3064
1.519,-0.345,3064
1.520,-0.289,3064
1.521,-0.266,3064
1.522,-0.231,3064
1.523,-0.204,3093
1.524,-0.186,3093
1.525,-0.176,3093
1.526,-0.174,3093
1.527,-0.181,3093
1.528,-0.196,3093
1.529,-0.226,3093
1.530,-0.264,3093
1.531,-0.296,3093
1.532,-0.333,3093
1.533,-0.366,3101
1.534,-0.384,3101
1.535,-0.390,3101
1.536,-0.389,3101
1.537,-0.379,3101
1.538,-0.356,3101
1.539,-0.330,3101
1.540,-0.249,3101
1.541,-0.209,3101
1.542,-0.181,3097
1.543,-0.130,3097
1.544,-0.128,3097
1.545,-0.144,3097
1.546,-0.166,3097
1.547,-0.204,3097
1.548,-0.244,3097
1.549,-0.284,3097
1.550,-0.326,3097
1.551,-0.356,3066
1.552,-0.386,3066
1.553,-0.400,3066
1.554,-0.401,3066
1.555,-0.385,3066
1.556,-0.366,3066
1.557,-0.341,3066
1.558,-0.302,3066
1.559,-0.265,3066
1.560,-0.182,3103
1.561,-0.136,3103
1.562,-0.126,3103
1.563,-0.135,3103
1.564,-0.151,3103
1.565,-0.185,3103
1.566,-0.221,3103
1.567,-0.261,3103
1.568,-0.301,3103
1.569,-0.341,3076
1.570,-0.361,3076
1.571,-0.374,3076
1.572,-0.371,3076
1.573,-0.366,3076
1.574,-0.349,3076
1.575,-0.324,3076
1.576,-0.290,3076
1.577,-0.261,3076
1.578,-0.231,3076
1.579,-0.205,3075
1.580,-0.182,3075
1.581,-0.181,3075
1.582,-0.193,3075
1.583,-0.204,3075
1.584,-0.226,3075
1.585,-0.251,3075
1.586,-0.281,3075
1.587,-0.309,3075
1.588,-0.331,3065
1.589,-0.346,3065
1.590,-0.352,3065
1.591,-0.351,3065
1.592,-0.336,3065
1.593,-0.309,3065
1.594,-0.281,3065
1.595,-0.246,3065
1.596,-0.211,3065
1.597,-0.185,3065
1.598,-0.161,3091
1.599,-0.139,3091
1.600,-0.129,3091
1.601,-0.136,3091
1.602,-0.163,3091
1.603,-0.190,3091
1.604,-0.224,3091
1.605,-0.261,3091
1.606,-0.291,3091
1.607,-0.324,3096
1.608,-0.341,3096
1.609,-0.351,3096
1.610,-0.354,3096
1.611,-0.346,3096
1.612,-0.326,3096
1.613,-0.296,3096
1.614,-0.268,3096
1.615,-0.231,3096
1.616,-0.201,3096
1.617,-0.171,3096
1.618,-0.150,3096
1.619,-0.135,3096
1.620,-0.133,3096
1.621,-0.163,3096
1.622,-0.184,3096
1.623,-0.206,3096
1.624,-0.241,3096
1.625,-0.269,3096
1.626,-0.297,3083
1.627,-0.329,3083
1.628,-0.346,3083
1.629,-0.351,3083
1.630,-0.344,3083
1.631,-0.333,3083
1.632,-0.309,3083
1.633,-0.282,3083
1.634,-0.250,3083
1.635,-0.216,3083
1.636,-0.186,3081
1.637,-0.164,3081
1.638,-0.146,3081
1.639,-0.141,3081
1.640,-0.164,3081
1.641,-0.181,3081
1.642,-0.204,3081
1.643,-0.230,3081
1.644,-0.261,3081
1.645,-0.287,3083
1.646,-0.306,3083
1.647,-0.314,3083
1.648,-0.321,3083
1.649,-0.311,3083
1.650,-0.296,3083
1.651,-0.274,3083
1.652,-0.253,3083
1.653,-0.224,3083
1.654,-0.194,3083
1.655,-0.174,3090
1.656,-0.150,3090
1.657,-0.141,3090
1.658,-0.136,3090
1.659,-0.149,3090
1.660,-0.206,3090
1.661,-0.254,3090
1.662,-0.280,3090
1.663,-0.309,3090
1.664,-0.341,3093
1.665,-0.362,3093
1.666,-0.370,3093
1.667,-0.371,3093
1.668,-0.364,3093
1.669,-0.340,3093
1.670,-0.306,3093
1.671,-0.269,3093
1.672,-0.224,3093
1.673,-0.186,3093
1.674,-0.151,3093
1.675,-0.129,3088
1.676,-0.116,3088
1.677,-0.114,3088
1.678,-0.126,3088
1.679,-0.146,3088
1.680,-0.214,3088
1.681,-0.251,3088
1.682,-0.286,3088
1.683,-0.304,3088
1.684,-0.345,3081
1.685,-0.354,3081
1.686,-0.351,3081
1.687,-0.341,3081
1.688,-0.314,3081
1.689,-0.286,3081
1.690,-0.250,3081
1.691,-0.209,3081
1.692,-0.172,3081
1.693,-0.144,3081
1.694,-0.121,3054
1.695,-0.109,3054
1.696,-0.109,3054
1.697,-0.121,3054
1.698,-0.144,3054
1.699,-0.171,3054
1.700,-0.244,3054
1.701,-0.266,3054
1.702,-0.290,3054
1.703,-0.310,3072
1.704,-0.326,3072
1.705,-0.331,3072
1.706,-0.325,3072
1.707,-0.306,3072
1.708,-0.281,3072
1.709,-0.249,3072
1.710,-0.209,3072
1.711,-0.175,3072
1.712,-0.141,3072
1.713,-0.111,3068
1.714,-0.094,3068
1.715,-0.085,3068
1.716,-0.086,3068
1.717,-0.104,3068
1.718,-0.129,3068
1.719,-0.169,3068
1.720,-0.250,3068
1.721,-0.274,3068
1.722,-0.296,3067
1.723,-0.309,3067
1.724,-0.307,3067
1.725,-0.296,3067
1.726,-0.276,3067
1.727,-0.245,3067
1.728,-0.209,3067
1.729,-0.171,3067
1.730,-0.131,3067
1.731,-0.102,3067
1.732,-0.081,3069
1.733,-0.065,3069
1.734,-0.068,3069
1.735,-0.080,3069
1.736,-0.096,3069
1.737,-0.116,3069
1.738,-0.144,3069
1.739,-0.171,3069
1.740,-0.216,3088
1.741,-0.244,3088
1.742,-0.250,3088
1.743,-0.234,3088
1.744,-0.223,3088
1.745,-0.195,3088
1.746,-0.166,3088
1.747,-0.129,3088
1.748,-0.095,3088
1.749,-0.064,3088
1.750,-0.046,3072
1.751,-0.031,3072
1.752,-0.029,3072
1.753,-0.036,3072
1.754,-0.061,3072
1.755,-0.086,3072
1.756,-0.114,3072
1.757,-0.146,3072
1.758,-0.181,3072
1.759,-0.206,3072
1.760,-0.229,3063
1.761,-0.210,3063
1.762,-0.191,3063
1.763,-0.168,3063
1.764,-0.136,3063
1.765,-0.104,3063
1.766,-0.070,3063
1.767,-0.036,3063
1.768,-0.014,3081
1.769,0.007,3081
1.770,0.009,3081
1.771,-0.015,3081
1.772,-0.036,3081
1.773,-0.070,3081
1.774,-0.106,3081
1.775,-0.144,3081
1.776,-0.186,3081
1.777,-0.219,3081
1.778,-0.249,3097
1.779,-0.266,3097
1.780,-0.281,3097
1.781,-0.269,3097
1.782,-0.256,3097
1.783,-0.231,3097
1.784,-0.209,3097
1.785,-0.186,3097
1.786,-0.166,3097
1.787,-0.146,3063
1.788,-0.136,3063
1.789,-0.141,3063
1.790,-0.150,3063
1.791,-0.169,3063
1.792,-0.189,3063
1.793,-0.216,3063
1.794,-0.249,3063
1.795,-0.281,3063
1.796,-0.306,3063
1.797,-0.329,3102
1.798,-0.344,3102
1.799,-0.346,3102
1.800,-0.326,3102
1.801,-0.299,3102
1.802,-0.275,3102
1.803,-0.247,3102
1.804,-0.214,3102
1.805,-0.190,3102
1.806,-0.174,3060
1.807,-0.169,3060
1.808,-0.169,3060
1.809,-0.180,3060
1.810,-0.195,3060
1.811,-0.224,3060
1.812,-0.260,3060
1.813,-0.292,3060
1.814,-0.331,3060
1.815,-0.364,3060
1.816,-0.379,3087
1.817,-0.389,3087
1.818,-0.391,3087
1.819,-0.384,3087
1.820,-0.325,3087
1.821,-0.289,3087
1.822,-0.260,3087
1.823,-0.209,3087
1.824,-0.184,3087
1.825,-0.161,3089
1.826,-0.135,3089
1.827,-0.129,3089
1.828,-0.131,3089
1.829,-0.151,3089
1.830,-0.182,3089
1.831,-0.215,3089
1.832,-0.260,3089
1.833,-0.292,3089
1.834,-0.331,3089
1.835,-0.361,3090
1.836,-0.384,3090
1.837,-0.401,3090
1.838,-0.406,3090
1.839,-0.401,3090
1.840,-0.341,3090
1.841,-0.307,3090
1.842,-0.266,3090
1.843,-0.219,3090
1.844,-0.185,3087
1.845,-0.161,3087
1.846,-0.136,3087
1.847,-0.139,3087
1.848,-0.154,3087
1.849,-0.181,3087
1.850,-0.214,3087
1.851,-0.261,3087
1.852,-0.296,3087
1.853,-0.331,3087
1.854,-0.366,3072
1.855,-0.384,3072
1.856,-0.389,3072
1.857,-0.383,3072
1.858,-0.362,3072
1.859,-0.329,3072
1.860,-0.249,3072
1.861,-0.216,3072
1.862,-0.174,3072
1.863,-0.151,3089
1.864,-0.138,3089
1.865,-0.151,3089
1.866,-0.181,3089
1.867,-0.214,3089
1.868,-0.264,3089
1.869,-0.311,3089
1.870,-0.361,3089
1.871,-0.405,3089
1.872,-0.434,3101
1.873,-0.461,3101
1.874,-0.471,3101
1.875,-0.481,3101
1.876,-0.466,3101
1.877,-0.438,3101
1.878,-0.406,3101
1.879,-0.356,3101
1.880,-0.242,3101
1.881,-0.190,3083
1.882,-0.126,3083
1.883,-0.070,3083
1.884,-0.015,3083
1.885,0.045,3083
1.886,0.104,3083
1.887,0.166,3083
1.888,0.230,3083
1.889,0.310,3083
1.890,0.396,3083
1.891,0.499,3090
1.892,0.606,3090
1.893,0.735,3090
1.894,0.876,3090
1.895,1.046,3090
1.896,1.231,3090
1.897,1.451,3090
1.898,1.691,3090
1.899,1.942,3090
1.900,2.306,3081
1.901,2.559,3081
1.902,2.554,3081
1.903,2.474,3081
1.904,2.311,3081
1.905,2.115,3081
1.906,1.891,3081
1.907,1.664,3081
1.908,1.439,3081
1.909,1.226,3072
1.910,1.019,3072
1.911,0.834,3072
1.912,0.665,3072
1.913,0.496,3072
1.914,0.344,3072
1.915,0.207,3072
1.916,0.085,3072
1.917,-0.029,3072
1.918,-0.116,3072
1.919,-0.201,3072
1.920,-0.355,3089
1.921,-0.472,3089
1.922,-0.531,3089
1.923,-0.584,3089
1.924,-0.626,3089
1.925,-0.669,3089
1.926,-0.698,3089
1.927,-0.726,3089
1.928,-0.735,3073
1.929,-0.731,3073
1.930,-0.711,3073
1.931,-0.685,3073
1.932,-0.646,3073
1.933,-0.589,3073
1.934,-0.531,3073
1.935,-0.481,3073
1.936,-0.425,3073
1.937,-0.386,3073
1.938,-0.356,3073
1.939,-0.341,3073
1.940,-0.346,3073
1.941,-0.361,3073
1.942,-0.386,3073
1.943,-0.411,3073
1.944,-0.444,3073
1.945,-0.464,3073
1.946,-0.474,3073
1.947,-0.486,3068
1.948,-0.482,3068
1.949,-0.466,3068
1.950,-0.446,3068
1.951,-0.415,3068
1.952,-0.379,3068
1.953,-0.349,3068
1.954,-0.309,3068
1.955,-0.276,3068
1.956,-0.254,3068
1.957,-0.244,3071
1.958,-0.245,3071
1.959,-0.260,3071
1.960,-0.326,3071
1.961,-0.352,3071
1.962,-0.385,3071
1.963,-0.416,3071
1.964,-0.441,3071
1.965,-0.456,3071
1.966,-0.466,3061
1.967,-0.471,3061
1.968,-0.465,3061
1.969,-0.446,3061
1.970,-0.416,3061
1.971,-0.375,3061
1.972,-0.341,3061
1.973,-0.299,3061
1.974,-0.270,3061
1.975,-0.249,3061
1.976,-0.229,3057
1.977,-0.224,3057
1.978,-0.229,3057
1.979,-0.244,3057
1.980,-0.291,3057
1.981,-0.325,3057
1.982,-0.356,3057
1.983,-0.386,3057
1.984,-0.412,3057
1.985,-0.426,3056
1.986,-0.426,3056
1.987,-0.422,3056
1.988,-0.404,3056
1.989,-0.366,3056
1.990,-0.334,3056
1.991,-0.289,3056
1.992,-0.249,3056
1.993,-0.210,3056
1.994,-0.186,3056
1.995,-0.169,3054
1.996,-0.166,3054
1.997,-0.174,3054
1.998,-0.188,3054
1.999,-0.210,3054
2.000,-0.284,3054
2.001,-0.323,3054
2.002,-0.351,3054
2.003,-0.379,3054
2.004,-0.391,3079
2.005,-0.403,3079
2.006,-0.388,3079
2.007,-0.369,3079
2.008,-0.344,3079
2.009,-0.306,3079
2.010,-0.271,3079
2.011,-0.241,3079
2.012,-0.211,3079
2.013,-0.190,3079
2.014,-0.175,3083
2.015,-0.170,3083
2.016,-0.175,3083
2.017,-0.191,3083
2.018,-0.216,3083
2.019,-0.253,3083
2.020,-0.334,3083
2.021,-0.349,3083
2.022,-0.371,3083
2.023,-0.393,3082
2.024,-0.383,3082
2.025,-0.362,3082
2.026,-0.331,3082
2.027,-0.291,3082
2.028,-0.251,3082
2.029,-0.209,3082
2.030,-0.172,3082
2.031,-0.146,3082
2.032,-0.135,3064
2.033,-0.134,3064
2.034,-0.145,3064
2.035,-0.171,3064
2.036,-0.196,3064
2.037,-0.231,3064
2.038,-0.270,3064
2.039,-0.304,3064
2.040,-0.349,3064
2.041,-0.355,3091
2.042,-0.336,3091
2.043,-0.314,3091
2.044,-0.289,3091
2.045,-0.253,3091
2.046,-0.210,3091
2.047,-0.169,3091
2.048,-0.131,3091
2.049,-0.106,3091
2.050,-0.094,3077
2.051,-0.086,3077
2.052,-0.094,3077
2.053,-0.109,3077
2.054,-0.094,3077
2.055,-0.164,3077
2.056,-0.195,3077
2.057,-0.234,3077
2.058,-0.271,3077
2.059,-0.297,3077
2.060,-0.321,3085
2.061,-0.284,3085
2.062,-0.247,3085
2.063,-0.206,3085
2.064,-0.166,3085
2.065,-0.121,3085
2.066,-0.086,3085
2.067,-0.055,3085
2.068,-0.036,3083
2.069,-0.030,3083
2.070,-0.036,3083
2.071,-0.052,3083
2.072,-0.091,3083
2.073,-0.126,3083
2.074,-0.166,3083
2.075,-0.201,3083
2.076,-0.231,3083
2.077,-0.260,3083
2.078,-0.269,3096
2.079,-0.270,3096
2.080,-0.229,3096
2.081,-0.203,3096
2.082,-0.163,3096
2.083,-0.121,3096
2.084,-0.035,3096
2.085,-0.031,3096
2.086,0.009,3096
2.087,0.030,3086
2.088,0.034,3086
2.089,0.031,3086
2.090,0.028,3086
2.091,-0.003,3086
2.092,-0.024,3086
2.093,-0.051,3086
2.094,-0.085,3086
2.095,-0.121,3086
2.096,-0.147,3086
2.097,-0.169,3099
2.098,-0.180,3099
2.099,-0.174,3099
2.100,-0.129,3099
2.101,-0.106,3099
2.102,-0.071,3099
2.103,-0.044,3099
2.104,-0.016,3099
2.105,0.006,3099
2.106,0.019,3078
2.107,0.019,3078
2.108,0.011,3078
2.109,-0.009,3078
2.110,-0.031,3078
2.111,-0.061,3078
2.112,-0.094,3078
2.113,-0.126,3078
2.114,-0.151,3078
2.115,-0.174,3078
2.116,-0.184,3084
2.117,-0.184,3084
2.118,-0.170,3084
2.119,-0.151,3084
2.120,-0.081,3084
2.121,-0.054,3084
2.122,-0.021,3084
2.123,0.014,3084
2.124,0.036,3084
2.125,0.049,3096
2.126,0.049,3096
2.127,0.044,3096
2.128,0.026,3096
2.129,-0.009,3096
2.130,-0.036,3096
2.131,-0.072,3096
2.132,-0.110,3096
2.133,-0.136,3096
2.134,-0.161,3096
2.135,-0.170,3089
2.136,-0.170,3089
2.137,-0.161,3089
2.138,-0.136,3089
2.139,-0.111,3089
2.140,-0.046,3089
2.141,-0.015,3089
2.142,0.010,3089
2.143,0.030,3089
2.144,0.035,3086
2.145,0.029,3086
2.146,0.014,3086
2.147,-0.021,3086
2.148,-0.031,3086
2.149,-0.090,3086
2.150,-0.126,3086
2.151,-0.161,3086
2.152,-0.190,3086
2.153,-0.211,3086
2.154,-0.226,3081
2.155,-0.230,3081
2.156,-0.225,3081
2.157,-0.209,3081
2.158,-0.186,3081
2.159,-0.164,3081
2.160,-0.095,3081
2.161,-0.072,3081
2.162,-0.054,3081
2.163,-0.046,3081
2.164,-0.054,3075
2.165,-0.066,3075
2.166,-0.095,3075
2.167,-0.129,3075
2.168,-0.172,3075
2.169,-0.216,3075
2.170,-0.261,3075
2.171,-0.301,3075
2.172,-0.331,3075
2.173,-0.351,3075
2.174,-0.362,3084
2.175,-0.361,3084
2.176,-0.349,3084
2.177,-0.331,3084
2.178,-0.299,3084
2.179,-0.266,3084
2.180,-0.198,3084
2.181,-0.174,3084
2.182,-0.166,3084
2.183,-0.165,3084
2.184,-0.174,3084
2.185,-0.194,3084
2.186,-0.229,3084
2.187,-0.270,3084
2.188,-0.307,3084
2.189,-0.354,3084
2.190,-0.385,3084
2.191,-0.411,3084
2.192,-0.424,3084
2.193,-0.426,3082
2.194,-0.415,3082
2.195,-0.391,3082
2.196,-0.369,3082
2.197,-0.335,3082
2.198,-0.301,3082
2.199,-0.269,3082
2.200,-0.223,3082
2.201,-0.219,3082
2.202,-0.221,3088
2.203,-0.231,3088
2.204,-0.254,3088
2.205,-0.281,3088
2.206,-0.309,3088
2.207,-0.344,3088
2.208,-0.365,3088
2.209,-0.390,3088
2.210,-0.415,3088
2.211,-0.426,3088
2.212,-0.431,3081
2.213,-0.426,3081
2.214,-0.409,3081
2.215,-0.381,3081
2.216,-0.349,3081
2.217,-0.309,3081
2.218,-0.274,3081
2.219,-0.249,3081
2.220,-0.212,3065
2.221,-0.230,3065
2.222,-0.254,3065
2.223,-0.286,3065
2.224,-0.321,3065
2.225,-0.356,3065
2.226,-0.385,3065
2.227,-0.412,3065
2.228,-0.430,3065
2.229,-0.441,3065
2.230,-0.436,3051
2.231,-0.426,3051
2.232,-0.404,3051
2.233,-0.371,3051
2.234,-0.334,3051
2.235,-0.295,3051
2.236,-0.264,3051
2.237,-0.231,3051
2.238,-0.211,3051
2.239,-0.204,3051
2.240,-0.247,3075
2.241,-0.270,3075
2.242,-0.297,3075
2.243,-0.331,3075
2.244,-0.355,3075
2.245,-0.378,3075
2.246,-0.406,3075
2.247,-0.421,3075
2.248,-0.431,3067
2.249,-0.426,3067
2.250,-0.411,3067
2.251,-0.389,3067
2.252,-0.356,3067
2.253,-0.328,3067
2.254,-0.291,3067
2.255,-0.264,3067
2.256,-0.241,3067
2.257,-0.221,3067
2.258,-0.214,3081
2.259,-0.215,3081
2.260,-0.261,3081
2.261,-0.286,3081
2.262,-0.314,3081
2.263,-0.350,3081
2.264,-0.375,3081
2.265,-0.401,3081
2.266,-0.410,3081
2.267,-0.410,3072
2.268,-0.403,3072
2.269,-0.383,3072
2.270,-0.354,3072
2.271,-0.324,3072
2.272,-0.286,3072
2.273,-0.251,3072
2.274,-0.217,3072
2.275,-0.191,3072
2.276,-0.171,3072
2.277,-0.163,3076
2.278,-0.161,3076
2.279,-0.170,3076
2.280,-0.224,3076
2.281,-0.254,3076
2.282,-0.289,3076
2.283,-0.326,3076
2.284,-0.354,3076
2.285,-0.374,3076
2.286,-0.384,3092
2.287,-0.374,3092
2.288,-0.364,3092
2.289,-0.341,3092
2.290,-0.309,3092
2.291,-0.274,3092
2.292,-0.244,3092
2.293,-0.206,3092
2.294,-0.184,3092
2.295,-0.169,3092
2.296,-0.164,3092
2.297,-0.170,3092
2.298,-0.186,3092
2.299,-0.210,3092
2.300,-0.281,3092
2.301,-0.344,3092
2.302,-0.356,3092
2.303,-0.372,3092
2.304,-0.369,3097
2.305,-0.364,3097
2.306,-0.346,3097
2.307,-0.324,3097
2.308,-0.295,3097
2.309,-0.270,3097
2.310,-0.234,3097
2.311,-0.210,3097
2.312,-0.188,3097
2.313,-0.175,3097
2.314,-0.174,3082
2.315,-0.181,3082
2.316,-0.205,3082
2.317,-0.226,3082
2.318,-0.264,3082
2.319,-0.295,3082
2.320,-0.366,3082
2.321,-0.384,3082
2.322,-0.391,3082
2.323,-0.390,3098
2.324,-0.375,3098
2.325,-0.352,3098
2.326,-0.321,3098
2.327,-0.282,3098
2.328,-0.234,3098
2.329,-0.196,3098
2.330,-0.161,3098
2.331,-0.129,3098
2.332,-0.116,3098
2.333,-0.114,3113
2.334,-0.126,3113
2.335,-0.147,3113
2.336,-0.186,3113
2.337,-0.221,3113
2.338,-0.264,3113
2.339,-0.306,3113
2.340,-0.374,3113
2.341,-0.390,3113
2.342,-0.394,3095
2.343,-0.385,3095
2.344,-0.366,3095
2.345,-0.340,3095
2.346,-0.296,3095
2.347,-0.256,3095
2.348,-0.216,3095
2.349,-0.182,3095
2.350,-0.149,3095
2.351,-0.134,3095
2.352,-0.131,3093
2.353,-0.141,3093
2.354,-0.163,3093
2.355,-0.186,3093
2.356,-0.214,3093
2.357,-0.251,3093
2.358,-0.286,3093
2.359,-0.321,3093
2.360,-0.365,3093
2.361,-0.370,3086
2.362,-0.366,3086
2.363,-0.352,3086
2.364,-0.329,3086
2.365,-0.296,3086
2.366,-0.266,3086
2.367,-0.233,3086
2.368,-0.206,3086
2.369,-0.186,3086
2.370,-0.170,3086
2.371,-0.164,3090
2.372,-0.170,3090
2.373,-0.184,3090
2.374,-0.209,3090
2.375,-0.241,3090
2.376,-0.269,3090
2.377,-0.301,3090
2.378,-0.326,3090
2.379,-0.350,3090
2.380,-0.359,3067
2.381,-0.331,3067
2.382,-0.301,3067
2.383,-0.264,3067
2.384,-0.224,3067
2.385,-0.188,3067
2.386,-0.152,3067
2.387,-0.134,3067
2.388,-0.122,3067
2.389,-0.126,3080
2.390,-0.134,3080
2.391,-0.154,3080
2.392,-0.189,3080
2.393,-0.226,3080
2.394,-0.274,3080
2.395,-0.294,3080
2.396,-0.351,3080
2.397,-0.371,3080
2.398,-0.384,3080
2.399,-0.381,3079
2.400,-0.312,3079
2.401,-0.284,3079
2.402,-0.244,3079
2.403,-0.204,3079
2.404,-0.171,3079
2.405,-0.146,3079
2.406,-0.131,3079
2.407,-0.130,3088
2.408,-0.134,3088
2.409,-0.161,3088
2.410,-0.176,3088
2.411,-0.209,3088
2.412,-0.242,3088
2.413,-0.274,3088
2.414,-0.301,3088
2.415,-0.324,3088
2.416,-0.334,3088
2.417,-0.341,3088
2.418,-0.341,3075
2.419,-0.331,3075
2.420,-0.284,3075
2.421,-0.256,3075
2.422,-0.226,3075
2.423,-0.191,3075
2.424,-0.166,3075
2.425,-0.144,3075
2.426,-0.136,3090
2.427,-0.144,3090
2.428,-0.161,3090
2.429,-0.189,3090
2.430,-0.226,3090
2.431,-0.269,3090
2.432,-0.306,3090
2.433,-0.344,3090
2.434,-0.369,3090
2.435,-0.384,3090
2.436,-0.386,3090
2.437,-0.370,3072
2.438,-0.334,3072
2.439,-0.294,3072
2.440,-0.209,3072
2.441,-0.181,3072
2.442,-0.146,3072
2.443,-0.129,3072
2.444,-0.126,3072
2.445,-0.133,3076
2.446,-0.154,3076
2.447,-0.180,3076
2.448,-0.207,3076
2.449,-0.245,3076
2.450,-0.274,3076
2.451,-0.306,3076
2.452,-0.330,3076
2.453,-0.346,3076
2.454,-0.351,3076
2.455,-0.349,3077
2.456,-0.334,3077
2.457,-0.306,3077
2.458,-0.274,3077
2.459,-0.244,3077
2.460,-0.174,3077
2.461,-0.151,3077
2.462,-0.136,3077
2.463,-0.128,3077
2.464,-0.131,3073
2.465,-0.146,3073
2.466,-0.171,3073
2.467,-0.206,3073
2.468,-0.246,3073
2.469,-0.281,3073
2.470,-0.312,3073
2.471,-0.343,3073
2.472,-0.354,3073
2.473,-0.354,3073
2.474,-0.346,3067
2.475,-0.329,3067
2.476,-0.301,3067
2.477,-0.270,3067
2.478,-0.229,3067
2.479,-0.198,3067
2.480,-0.149,3067
2.481,-0.141,3067
2.482,-0.141,3067
2.483,-0.150,3074
2.484,-0.171,3074
2.485,-0.198,3074
2.486,-0.229,3074
2.487,-0.264,3074
2.488,-0.295,3074
2.489,-0.321,3074
2.490,-0.336,3074
2.491,-0.344,3074
2.492,-0.336,3074
2.493,-0.328,3045
2.494,-0.304,3045
2.495,-0.275,3045
2.496,-0.244,3045
2.497,-0.207,3045
2.498,-0.171,3045
2.499,-0.141,3045
2.500,-0.104,3045
2.501,-0.104,3045
2.502,-0.109,3070
2.503,-0.145,3070
2.504,-0.176,3070
2.505,-0.215,3070
2.506,-0.254,3070
2.507,-0.289,3070
2.508,-0.311,3070
2.509,-0.333,3070
2.510,-0.336,3070
2.511,-0.334,3069
2.512,-0.311,3069
2.513,-0.286,3069
2.514,-0.256,3069
2.515,-0.221,3069
2.516,-0.193,3069
2.517,-0.169,3069
2.518,-0.195,3069
2.519,-0.133,3069
2.520,-0.128,3076
2.521,-0.163,3076
2.522,-0.188,3076
2.523,-0.217,3076
2.524,-0.254,3076
2.525,-0.284,3076
2.526,-0.309,3076
2.527,-0.329,3076
2.528,-0.336,3076
2.529,-0.333,3089
2.530,-0.311,3089
2.531,-0.289,3089
2.532,-0.261,3089
2.533,-0.225,3089
2.534,-0.191,3089
2.535,-0.161,3089
2.536,-0.135,3089
2.537,-0.121,3089
2.538,-0.111,3089
2.539,-0.114,3088
2.540,-0.152,3088
2.541,-0.181,3088
2.542,-0.207,3088
2.543,-0.241,3088
2.544,-0.264,3088
2.545,-0.282,3088
2.546,-0.289,3088
2.547,-0.286,3088
2.548,-0.271,3084
2.549,-0.246,3084
2.550,-0.214,3084
2.551,-0.175,3084
2.552,-0.133,3084
2.553,-0.094,3084
2.554,-0.056,3084
2.555,-0.031,3084
2.556,-0.015,3084
2.557,-0.011,3084
2.558,-0.025,3067
2.559,-0.044,3067
2.560,-0.111,3067
2.561,-0.131,3067
2.562,-0.181,3067
2.563,-0.211,3067
2.564,-0.229,3067
2.565,-0.246,3067
2.566,-0.251,3067
2.567,-0.251,3085
2.568,-0.234,3085
2.569,-0.215,3085
2.570,-0.189,3085
2.571,-0.150,3085
2.572,-0.121,3085
2.573,-0.090,3085
2.574,-0.061,3085
2.575,-0.044,3085
2.576,-0.031,3085
2.577,-0.030,3077
2.578,-0.036,3077
2.579,-0.054,3077
2.580,-0.122,3077
2.581,-0.146,3077
2.582,-0.172,3077
2.583,-0.191,3077
2.584,-0.201,3077
2.585,-0.199,3077
2.586,-0.181,3094
2.587,-0.149,3094
2.588,-0.114,3094
2.589,-0.081,3094
2.590,-0.045,3094
2.591,-0.016,3094
2.592,0.010,3094
2.593,0.024,3094
2.594,0.029,3094
2.595,0.021,3094
2.596,-0.003,3098
2.597,-0.028,3098
2.598,-0.061,3098
2.599,-0.094,3098
2.600,-0.174,3098
2.601,-0.204,3098
2.602,-0.226,3098
2.603,-0.244,3098
2.604,-0.247,3098
2.605,-0.244,3095
2.606,-0.230,3095
2.607,-0.215,3095
2.608,-0.196,3095
2.609,-0.176,3095
2.610,-0.154,3095
2.611,-0.091,3095
2.612,-0.124,3095
2.613,-0.121,3095
2.614,-0.121,3095
2.615,-0.130,3104
2.616,-0.151,3104
2.617,-0.181,3104
2.618,-0.211,3104
2.619,-0.244,3104
2.620,-0.302,3104
2.621,-0.321,3104
2.622,-0.330,3104
2.623,-0.328,3104
2.624,-0.312,3091
2.625,-0.287,3091
2.626,-0.261,3091
2.627,-0.226,3091
2.628,-0.194,3091
2.629,-0.164,3091
2.630,-0.134,3091
2.631,-0.114,3091
2.632,-0.104,3091
2.633,-0.096,3091
2.634,-0.107,3106
2.635,-0.131,3106
2.636,-0.164,3106
2.637,-0.199,3106
2.638,-0.244,3106
2.639,-0.271,3106
2.640,-0.326,3106
2.641,-0.336,3106
2.642,-0.349,3106
2.643,-0.335,3089
2.644,-0.323,3089
2.645,-0.304,3089
2.646,-0.280,3089
2.647,-0.249,3089
2.648,-0.214,3089
2.649,-0.184,3089
2.650,-0.163,3089
2.651,-0.145,3089
2.652,-0.141,3089
2.653,-0.144,3053
2.654,-0.164,3053
2.655,-0.188,3053
2.656,-0.211,3053
2.657,-0.247,3053
2.658,-0.274,3053
2.659,-0.296,3053
2.660,-0.324,3053
2.661,-0.314,3053
2.662,-0.305,3083
2.663,-0.284,3083
2.664,-0.255,3083
2.665,-0.219,3083
2.666,-0.186,3083
2.667,-0.164,3083
2.668,-0.134,3083
2.669,-0.114,3083
2.670,-0.109,3083
2.671,-0.111,3083
2.672,-0.124,3083
2.673,-0.151,3108
2.674,-0.181,3108
2.675,-0.215,3108
2.676,-0.256,3108
2.677,-0.289,3108
2.678,-0.321,3108
2.679,-0.338,3108
2.680,-0.351,3108
2.681,-0.345,3108
2.682,-0.334,3063
2.683,-0.305,3063
2.684,-0.275,3063
2.685,-0.246,3063
2.686,-0.212,3063
2.687,-0.189,3063
2.688,-0.174,3063
2.689,-0.166,3063
2.690,-0.169,3063
2.691,-0.186,3063
2.692,-0.211,3086
2.693,-0.260,3086
2.694,-0.304,3086
2.695,-0.354,3086
2.696,-0.404,3086
2.697,-0.436,3086
2.698,-0.464,3086
2.699,-0.481,3086
2.700,-0.450,3035
2.701,-0.366,3035
2.702,-0.301,3035
2.703,-0.224,3035
2.704,-0.129,3035
2.705,-0.043,3035
2.706,0.070,3035
2.707,0.169,3035
2.708,0.250,3035
2.709,0.334,3035
2.710,0.422,3097
2.711,0.510,3097
2.712,0.598,3097
2.713,0.694,3097
2.714,0.790,3097
2.715,0.905,3097
2.716,1.026,3097
2.717,1.173,3097
2.718,1.347,3097
2.719,1.551,3097
2.720,2.056,3076
2.721,2.455,3076
2.722,2.559,3076
2.723,2.559,3076
2.724,2.559,3076
2.725,2.545,3076
2.726,2.424,3076
2.727,2.234,3076
2.728,2.011,3065
2.729,1.751,3065
2.730,1.494,3065
2.731,1.235,3065
2.732,0.979,3065
2.733,0.744,3065
2.734,0.520,3065
2.735,0.319,3065
2.736,0.151,3065
2.737,0.011,3065
2.738,-0.096,3073
2.739,-0.182,3073
2.740,-0.292,3073
2.741,-0.321,3073
2.742,-0.341,3073
2.743,-0.362,3073
2.744,-0.376,3073
2.745,-0.404,3073
2.746,-0.424,3073
2.747,-0.451,3063
2.748,-0.486,3063
2.749,-0.517,3063
2.750,-0.561,3063
2.751,-0.590,3063
2.752,-0.619,3063
2.753,-0.634,3063
2.754,-0.646,3063
2.755,-0.631,3063
2.756,-0.609,3063
2.757,-0.574,3086
2.758,-0.529,3086
2.759,-0.484,3086
2.760,-0.367,3086
2.761,-0.334,3086
2.762,-0.301,3086
2.763,-0.285,3086
2.764,-0.281,3086
2.765,-0.291,3086
2.766,-0.310,3067
2.767,-0.344,3067
2.768,-0.372,3067
2.769,-0.412,3067
2.770,-0.444,3067
2.771,-0.471,3067
2.772,-0.496,3067
2.773,-0.507,3067
2.774,-0.506,3067
2.775,-0.494,3067
2.776,-0.471,3072
2.777,-0.441,3072
2.778,-0.411,3072
2.779,-0.369,3072
2.780,-0.291,3072
2.781,-0.269,3072
2.782,-0.251,3072
2.783,-0.251,3072
2.784,-0.256,3072
2.785,-0.276,3092
2.786,-0.306,3092
2.787,-0.341,3092
2.788,-0.374,3092
2.789,-0.409,3092
2.790,-0.431,3092
2.791,-0.454,3092
2.792,-0.454,3092
2.793,-0.449,3092
2.794,-0.441,3092
2.795,-0.421,3095
2.796,-0.391,3095
2.797,-0.361,3095
2.798,-0.326,3095
2.799,-0.286,3095
2.800,-0.224,3095
2.801,-0.215,3095
2.802,-0.210,3095
2.803,-0.221,3095
2.804,-0.241,3088
2.805,-0.263,3088
2.806,-0.289,3088
2.807,-0.312,3088
2.808,-0.346,3088
2.809,-0.376,3088
2.810,-0.406,3088
2.811,-0.421,3088
2.812,-0.425,3088
2.813,-0.414,3088
2.814,-0.393,3087
2.815,-0.364,3087
2.816,-0.331,3087
2.817,-0.284,3087
2.818,-0.246,3087
2.819,-0.206,3087
2.820,-0.171,3087
2.821,-0.169,3087
2.822,-0.174,3087
2.823,-0.191,3104
2.824,-0.215,3104
2.825,-0.254,3104
2.826,-0.289,3104
2.827,-0.326,3104
2.828,-0.361,3104
2.829,-0.386,3104
2.830,-0.422,3104
2.831,-0.407,3104
2.832,-0.401,3104
2.833,-0.376,3068
2.834,-0.351,3068
2.835,-0.312,3068
2.836,-0.274,3068
2.837,-0.242,3068
2.838,-0.206,3068
2.839,-0.182,3068
2.840,-0.154,3068
2.841,-0.164,3068
2.842,-0.181,3095
2.843,-0.204,3095
2.844,-0.230,3095
2.845,-0.268,3095
2.846,-0.301,3095
2.847,-0.334,3095
2.848,-0.352,3095
2.849,-0.367,3095
2.850,-0.371,3095
2.851,-0.361,3095
2.852,-0.341,3101
2.853,-0.306,3101
2.854,-0.274,3101
2.855,-0.231,3101
2.856,-0.196,3101
2.857,-0.165,3101
2.858,-0.136,3101
2.859,-0.125,3101
2.860,-0.191,3101
2.861,-0.161,3089
2.862,-0.186,3089
2.863,-0.216,3089
2.864,-0.254,3089
2.865,-0.286,3089
2.866,-0.312,3089
2.867,-0.334,3089
2.868,-0.340,3089
2.869,-0.330,3089
2.870,-0.304,3089
2.871,-0.271,3090
2.872,-0.230,3090
2.873,-0.189,3090
2.874,-0.146,3090
2.875,-0.109,3090
2.876,-0.085,3090
2.877,-0.064,3090
2.878,-0.052,3090
2.879,-0.054,3090
2.880,-0.090,3079
2.881,-0.146,3079
2.882,-0.189,3079
2.883,-0.231,3079
2.884,-0.271,3079
2.885,-0.302,3079
2.886,-0.323,3079
2.887,-0.329,3079
2.888,-0.309,3079
2.889,-0.290,3096
2.890,-0.264,3096
2.891,-0.224,3096
2.892,-0.188,3096
2.893,-0.144,3096
2.894,-0.111,3096
2.895,-0.086,3096
2.896,-0.065,3096
2.897,-0.054,3096
2.898,-0.051,3096
2.899,-0.062,3077
2.900,-0.106,3077
2.901,-0.131,3077
2.902,-0.161,3077
2.903,-0.182,3077
2.904,-0.194,3077
2.905,-0.204,3077
2.906,-0.204,3077
2.907,-0.194,3077
2.908,-0.175,3073
2.909,-0.147,3073
2.910,-0.121,3073
2.911,-0.084,3073
2.912,-0.049,3073
2.913,-0.018,3073
2.914,0.015,3073
2.915,0.030,3073
2.916,0.035,3073
2.917,0.031,3073
2.918,0.019,3073
2.919,-0.014,3089
2.920,-0.090,3089
2.921,-0.114,3089
2.922,-0.141,3089
2.923,-0.171,3089
2.924,-0.181,3089
2.925,-0.176,3089
2.926,-0.163,3089
2.927,-0.136,3089
2.928,-0.111,3068
2.929,-0.081,3068
2.930,-0.044,3068
2.931,-0.007,3068
2.932,0.031,3068
2.933,0.054,3068
2.934,0.066,3068
2.935,0.066,3068
2.936,0.055,3068
2.937,0.031,3068
2.938,-0.006,3078
2.939,-0.044,3078
2.940,-0.129,3078
2.941,-0.166,3078
2.942,-0.184,3078
2.943,-0.194,3078
2.944,-0.195,3078
2.945,-0.189,3078
2.946,-0.166,3078
2.947,-0.135,3081
2.948,-0.104,3081
2.949,-0.066,3081
2.950,-0.031,3081
2.951,0.009,3081
2.952,0.033,3081
2.953,0.050,3081
2.954,0.058,3081
2.955,0.046,3081
2.956,0.026,3081
2.957,-0.006,3050
2.958,-0.037,3050
2.959,-0.081,3050
2.960,-0.149,3050
2.961,-0.172,3050
2.962,-0.191,3050
2.963,-0.196,3050
2.964,-0.194,3050
2.965,-0.184,3050
2.966,-0.154,3083
2.967,-0.124,3083
2.968,-0.091,3083
2.969,-0.061,3083
2.970,-0.035,3083
2.971,-0.021,3083
2.972,-0.010,3083
2.973,-0.010,3083
2.974,-0.026,3083
2.975,-0.049,3083
2.976,-0.085,3076
2.977,-0.121,3076
2.978,-0.165,3076
2.979,-0.196,3076
2.980,-0.251,3076
2.981,-0.264,3076
2.982,-0.271,3076
2.983,-0.264,3076
2.984,-0.250,3076
2.985,-0.226,3073
2.986,-0.184,3073
2.987,-0.163,3073
2.988,-0.141,3073
2.989,-0.126,3073
2.990,-0.122,3073
2.991,-0.129,3073
2.992,-0.145,3073
2.993,-0.171,3073
2.994,-0.201,3052
2.995,-0.244,3052
2.996,-0.284,3052
2.997,-0.331,3052
2.998,-0.365,3052
2.999,-0.390,3052
3.000,-0.409,3052
3.001,-0.401,3052
3.002,-0.371,3052
3.003,-0.354,3082
3.004,-0.329,3082
3.005,-0.295,3082
3.006,-0.269,3082
3.007,-0.250,3082
3.008,-0.230,3082
3.009,-0.226,3082
3.010,-0.231,3082
3.011,-0.251,3082
3.012,-0.274,3082
3.013,-0.304,3057
3.014,-0.340,3057
3.015,-0.374,3057
3.016,-0.411,3057
3.017,-0.441,3057
3.018,-0.464,3057
3.019,-0.470,3057
3.020,-0.464,3057
3.021,-0.451,3057
3.022,-0.427,3083
3.023,-0.390,3083
3.024,-0.354,3083
3.025,-0.315,3083
3.026,-0.286,3083
3.027,-0.263,3083
3.028,-0.249,3083
3.029,-0.249,3083
3.030,-0.254,3083
3.031,-0.269,3083
3.032,-0.291,3087
3.033,-0.324,3087
3.034,-0.351,3087
3.035,-0.383,3087
3.036,-0.415,3087
3.037,-0.441,3087
3.038,-0.461,3087
3.039,-0.468,3087
3.040,-0.451,3087
3.041,-0.431,3083
3.042,-0.391,3083
3.043,-0.354,3083
3.044,-0.311,3083
3.045,-0.274,3083
3.046,-0.249,3083
3.047,-0.226,3083
3.048,-0.246,3083
3.049,-0.228,3083
3.050,-0.249,3083
3.051,-0.273,3068
3.052,-0.307,3068
3.053,-0.346,3068
3.054,-0.379,3068
3.055,-0.410,3068
3.056,-0.431,3068
3.057,-0.446,3068
3.058,-0.450,3068
3.059,-0.444,3068
3.060,-0.401,3092
3.061,-0.333,3092
3.062,-0.301,3092
3.063,-0.271,3092
3.064,-0.250,3092
3.065,-0.241,3092
3.066,-0.241,3092
3.067,-0.250,3092
3.068,-0.269,3092
3.069,-0.291,3091
3.070,-0.328,3091
3.071,-0.354,3091
3.072,-0.381,3091
3.073,-0.406,3091
3.074,-0.424,3091
3.075,-0.431,3091
3.076,-0.429,3091
3.077,-0.421,3091
3.078,-0.401,3091
3.079,-0.371,3095
3.080,-0.307,3095
3.081,-0.264,3095
3.082,-0.224,3095
3.083,-0.195,3095
3.084,-0.174,3095
3.085,-0.168,3095
3.086,-0.172,3095
3.087,-0.191,3095
3.088,-0.226,3093
3.089,-0.269,3093
3.090,-0.311,3093
3.091,-0.359,3093
3.092,-0.404,3093
3.093,-0.426,3093
3.094,-0.436,3093
3.095,-0.441,3093
3.096,-0.434,3093
3.097,-0.414,3093
3.098,-0.381,3071
3.099,-0.349,3071
3.100,-0.266,3071
3.101,-0.244,3071
3.102,-0.211,3071
3.103,-0.194,3071
3.104,-0.189,3071
3.105,-0.194,3071
3.106,-0.214,3071
3.107,-0.242,3110
3.108,-0.273,3110
3.109,-0.309,3110
3.110,-0.305,3110
3.111,-0.371,3110
3.112,-0.394,3110
3.113,-0.409,3110
3.114,-0.409,3110
3.115,-0.391,3110
3.116,-0.372,3110
3.117,-0.344,3085
3.118,-0.307,3085
3.119,-0.271,3085
3.120,-0.196,3085
3.121,-0.181,3085
3.122,-0.166,3085
3.123,-0.164,3085
3.124,-0.169,3085
3.125,-0.186,3085
3.126,-0.211,3088
3.127,-0.249,3088
3.128,-0.284,3088
3.129,-0.314,3088
3.130,-0.345,3088
3.131,-0.369,3088
3.132,-0.381,3088
3.133,-0.384,3088
3.134,-0.372,3088
3.135,-0.346,3088
3.136,-0.314,3081
3.137,-0.282,3081
3.138,-0.246,3081
3.139,-0.206,3081
3.140,-0.174,3081
3.141,-0.145,3081
3.142,-0.146,3081
3.143,-0.164,3081
3.144,-0.184,3081
3.145,-0.210,3076
3.146,-0.246,3076
3.147,-0.275,3076
3.148,-0.305,3076
3.149,-0.331,3076
3.150,-0.349,3076
3.151,-0.364,3076
3.152,-0.364,3076
3.153,-0.355,3076
3.154,-0.336,3076
3.155,-0.306,3072
3.156,-0.281,3072
3.157,-0.246,3072
3.158,-0.210,3072
3.159,-0.181,3072
3.160,-0.141,3072
3.161,-0.141,3072
3.162,-0.154,3072
3.163,-0.174,3072
3.164,-0.209,3072
3.165,-0.247,3091
3.166,-0.284,3091
3.167,-0.321,3091
3.168,-0.350,3091
3.169,-0.371,3091
3.170,-0.384,3091
3.171,-0.381,3091
3.172,-0.341,3091
3.173,-0.299,3091
3.174,-0.304,3097
3.175,-0.269,3097
3.176,-0.226,3097
3.177,-0.189,3097
3.178,-0.151,3097
3.179,-0.126,3097
3.180,-0.114,3097
3.181,-0.129,3097
3.182,-0.155,3097
3.183,-0.191,3097
3.184,-0.233,3095
3.185,-0.275,3095
3.186,-0.309,3095
3.187,-0.344,3095
3.188,-0.366,3095
3.189,-0.376,3095
3.190,-0.381,3095
3.191,-0.376,3095
3.192,-0.356,3095
3.193,-0.331,3095
3.194,-0.294,3079
3.195,-0.261,3079
3.196,-0.224,3079
3.197,-0.194,3079
3.198,-0.176,3079
3.199,-0.165,3079
3.200,-0.174,3079
3.201,-0.186,3079
3.202,-0.201,3079
3.203,-0.174,3070
3.204,-0.269,3070
3.205,-0.304,3070
3.206,-0.335,3070
3.207,-0.361,3070
3.208,-0.369,3070
3.209,-0.366,3070
3.210,-0.354,3070
3.211,-0.334,3070
3.212,-0.311,3070
3.213,-0.276,3080
3.214,-0.245,3080
3.215,-0.205,3080
3.216,-0.171,3080
3.217,-0.146,3080
3.218,-0.134,3080
3.219,-0.133,3080
3.220,-0.180,3080
3.221,-0.204,3062
3.222,-0.289,3062
3.223,-0.328,3062
3.224,-0.364,3062
3.225,-0.391,3062
3.226,-0.410,3062
3.227,-0.412,3062
3.228,-0.403,3062
3.229,-0.374,3062
3.230,-0.351,3062
3.231,-0.320,3079
3.232,-0.276,3079
3.233,-0.234,3079
3.234,-0.182,3079
3.235,-0.186,3079
3.236,-0.175,3079
3.237,-0.174,3079
3.238,-0.184,3079
3.239,-0.205,3079
3.240,-0.269,3078
3.241,-0.341,3078
3.242,-0.383,3078
3.243,-0.410,3078
3.244,-0.409,3078
3.245,-0.404,3078
3.246,-0.388,3078
3.247,-0.356,3078
3.248,-0.331,3094
3.249,-0.296,3094
3.250,-0.266,3094
3.251,-0.242,3094
3.252,-0.216,3094
3.253,-0.204,3094
3.254,-0.196,3094
3.255,-0.201,3094
3.256,-0.211,3094
3.257,-0.241,3094
3.258,-0.271,3075
3.259,-0.310,3075
3.260,-0.383,3075
3.261,-0.391,3075
3.262,-0.409,3075
3.263,-0.416,3075
3.264,-0.401,3075
3.265,-0.381,3075
3.266,-0.350,3075
3.267,-0.323,3079
3.268,-0.284,3079
3.269,-0.249,3079
3.270,-0.211,3079
3.271,-0.194,3079
3.272,-0.180,3079
3.273,-0.181,3079
3.274,-0.193,3079
3.275,-0.214,3079
3.276,-0.244,3079
3.277,-0.266,3087
3.278,-0.292,3087
3.279,-0.324,3087
3.280,-0.354,3087
3.281,-0.369,3087
3.282,-0.370,3087
3.283,-0.364,3087
3.284,-0.351,3087
3.285,-0.325,3087
3.286,-0.291,3092
3.287,-0.254,3092
3.288,-0.216,3092
3.289,-0.191,3092
3.290,-0.170,3092
3.291,-0.161,3092
3.292,-0.161,3092
3.293,-0.169,3092
3.294,-0.190,3092
3.295,-0.216,3092
3.296,-0.250,3073
3.297,-0.285,3073
3.298,-0.306,3073
3.299,-0.338,3073
3.300,-0.369,3073
3.301,-0.370,3073
3.302,-0.352,3073
3.303,-0.331,3073
3.304,-0.306,3073
3.305,-0.274,3087
3.306,-0.245,3087
3.307,-0.211,3087
3.308,-0.186,3087
3.309,-0.166,3087
3.310,-0.151,3087
3.311,-0.151,3087
3.312,-0.161,3087
3.313,-0.174,3087
3.314,-0.196,3087
3.315,-0.226,3078
3.316,-0.264,3078
3.317,-0.294,3078
3.318,-0.329,3078
3.319,-0.354,3078
3.320,-0.381,3078
3.321,-0.384,3078
3.322,-0.369,3078
3.323,-0.347,3078
3.324,-0.314,3093
3.325,-0.282,3093
3.326,-0.245,3093
3.327,-0.211,3093
3.328,-0.186,3093
3.329,-0.168,3093
3.330,-0.163,3093
3.331,-0.164,3093
3.332,-0.181,3093
3.333,-0.206,3093
3.334,-0.234,3102
3.335,-0.270,3102
3.336,-0.301,3102
3.337,-0.331,3102
3.338,-0.350,3102
3.339,-0.361,3102
3.340,-0.354,3102
3.341,-0.343,3102
3.342,-0.321,3102
3.343,-0.287,3075
3.344,-0.256,3075
3.345,-0.224,3075
3.346,-0.195,3075
3.347,-0.174,3075
3.348,-0.164,3075
3.349,-0.163,3075
3.350,-0.169,3075
3.351,-0.186,3075
3.352,-0.214,3075
3.353,-0.246,3094
3.354,-0.312,3094
3.355,-0.336,3094
3.356,-0.354,3094
3.357,-0.350,3094
3.358,-0.354,3094
3.359,-0.343,3094
3.360,-0.271,3094
3.361,-0.241,3103
3.362,-0.201,3103
3.363,-0.163,3103
3.364,-0.126,3103
3.365,-0.095,3103
3.366,-0.081,3103
3.367,-0.064,3103
3.368,-0.065,3103
3.369,-0.066,3103
3.370,-0.090,3103
3.371,-0.116,3082
3.372,-0.151,3082
3.373,-0.189,3082
3.374,-0.216,3082
3.375,-0.249,3082
3.376,-0.263,3082
3.377,-0.266,3082
3.378,-0.261,3082
3.379,-0.244,3082
3.380,-0.181,3089
3.381,-0.125,3089
3.382,-0.101,3089
3.383,-0.086,3089
3.384,-0.075,3089
3.385,-0.084,3089
3.386,-0.091,3089
3.387,-0.111,3089
3.388,-0.096,3089
3.389,-0.164,3071
3.390,-0.182,3071
3.391,-0.201,3071
3.392,-0.209,3071
3.393,-0.210,3071
3.394,-0.204,3071
3.395,-0.181,3071
3.396,-0.161,3071
3.397,-0.129,3071
3.398,-0.100,3071
3.399,-0.069,3086
3.400,-0.006,3086
3.401,0.014,3086
3.402,0.030,3086
3.403,0.031,3086
3.404,0.022,3086
3.405,-0.003,3086
3.406,-0.028,3086
3.407,-0.056,3086
3.408,-0.098,3084
3.409,-0.141,3084
3.410,-0.184,3084
3.411,-0.217,3084
3.412,-0.249,3084
3.413,-0.264,3084
3.414,-0.266,3084
3.415,-0.264,3084
3.416,-0.247,3084
3.417,-0.221,3084
3.418,-0.189,3084
3.419,-0.152,3088
3.420,-0.071,3088
3.421,-0.065,3088
3.422,-0.064,3088
3.423,-0.072,3088
3.424,-0.098,3088
3.425,-0.125,3088
3.426,-0.166,3088
3.427,-0.204,3078
3.428,-0.249,3078
3.429,-0.289,3078
3.430,-0.325,3078
3.431,-0.345,3078
3.432,-0.351,3078
3.433,-0.344,3078
3.434,-0.323,3078
3.435,-0.294,3078
3.436,-0.264,3078
3.437,-0.225,3092
3.438,-0.191,3092
3.439,-0.161,3092
3.440,-0.120,3092
3.441,-0.121,3092
3.442,-0.129,3092
3.443,-0.146,3092
3.444,-0.171,3092
3.445,-0.204,3092
3.446,-0.234,3073
3.447,-0.269,3073
3.448,-0.295,3073
3.449,-0.324,3073
3.450,-0.364,3073
3.451,-0.329,3073
3.452,-0.311,3073
3.453,-0.289,3073
3.454,-0.261,3073
3.455,-0.230,3073
3.456,-0.201,3068
3.457,-0.169,3068
3.458,-0.136,3068
3.459,-0.116,3068
3.460,-0.111,3068
3.461,-0.122,3068
3.462,-0.135,3068
3.463,-0.171,3068
3.464,-0.206,3030
3.465,-0.285,3030
3.466,-0.311,3030
3.467,-0.336,3030
3.468,-0.346,3030
3.469,-0.347,3030
3.470,-0.336,3030
3.471,-0.312,3030
3.472,-0.287,3030
3.473,-0.254,3030
3.474,-0.217,3070
3.475,-0.186,3070
3.476,-0.164,3070
3.477,-0.140,3070
3.478,-0.129,3070
3.479,-0.129,3070
3.480,-0.171,3070
3.481,-0.191,3070
3.482,-0.226,3070
3.483,-0.266,3053
3.484,-0.301,3053
3.485,-0.334,3053
3.486,-0.361,3053
3.487,-0.371,3053
3.488,-0.369,3053
3.489,-0.354,3053
3.490,-0.329,3053
3.491,-0.292,3053
3.492,-0.264,3053
3.493,-0.223,3072
3.494,-0.186,3072
3.495,-0.149,3072
3.496,-0.114,3072
3.497,-0.109,3072
3.498,-0.106,3072
3.499,-0.121,3072
3.500,-0.189,3072
3.501,-0.286,3081
3.502,-0.357,3081
3.503,-0.388,3081
3.504,-0.411,3081
3.505,-0.421,3081
3.506,-0.421,3081
3.507,-0.411,3081
3.508,-0.393,3081
3.509,-0.355,3081
3.510,-0.341,3069
3.511,-0.302,3069
3.512,-0.270,3069
3.513,-0.244,3069
3.514,-0.210,3069
3.515,-0.186,3069
3.516,-0.164,3069
3.517,-0.144,3069
3.518,-0.130,3069
3.519,-0.113,3069
3.520,-0.049,3080
3.521,0.074,3080
3.522,0.169,3080
3.523,0.274,3080
3.524,0.399,3080
3.525,0.539,3080
3.526,0.696,3080
3.527,0.864,3080
3.528,1.048,3107
3.529,1.244,3107
3.530,1.458,3107
3.531,1.676,3107
3.532,1.904,3107
3.533,2.119,3107
3.534,2.311,3107
3.535,2.456,3107
3.536,2.524,3107
3.537,2.524,3107
3.538,2.456,3075
3.539,2.346,3075
3.540,1.994,3075
3.541,1.837,3075
3.542,1.656,3075
3.543,1.479,3075
3.544,1.301,3075
3.545,1.119,3075
3.546,0.951,3075
3.547,0.789,3087
3.548,0.619,3087
3.549,0.474,3087
3.550,0.336,3087
3.551,0.209,3087
3.552,0.089,3087
3.553,-0.031,3087
3.554,-0.144,3087
3.555,-0.250,3087
3.556,-0.344,3087
3.557,-0.430,3087
3.558,-0.506,3087
3.559,-0.565,3087
3.560,-0.652,3087
3.561,-0.661,3087
3.562,-0.666,3087
3.563,-0.654,3087
3.564,-0.630,3087
3.565,-0.594,3087
3.566,-0.561,3103
3.567,-0.511,3103
3.568,-0.469,3103
3.569,-0.429,3103
3.570,-0.403,3103
3.571,-0.375,3103
3.572,-0.370,3103
3.573,-0.372,3103
3.574,-0.386,3103
3.575,-0.410,3103
3.576,-0.431,3092
3.577,-0.454,3092
3.578,-0.474,3092
3.579,-0.489,3092
3.580,-0.504,3092
3.581,-0.496,3092
3.582,-0.466,3092
3.583,-0.434,3092
3.584,-0.384,3092
3.585,-0.341,3083
3.586,-0.295,3083
3.587,-0.264,3083
3.588,-0.241,3083
3.589,-0.228,3083
3.590,-0.241,3083
3.591,-0.271,3083
3.592,-0.304,3083
3.593,-0.326,3083
3.594,-0.374,3081
3.595,-0.409,3081
3.596,-0.435,3081
3.597,-0.461,3081
3.598,-0.474,3081
3.599,-0.474,3081
3.600,-0.446,3081
3.601,-0.371,3081
3.602,-0.386,3081
3.603,-0.341,3076
3.604,-0.301,3076
3.605,-0.269,3076
3.606,-0.245,3076
3.607,-0.226,3076
3.608,-0.224,3076
3.609,-0.233,3076
3.610,-0.256,3076
3.611,-0.281,3076
3.612,-0.306,3076
3.613,-0.341,3097
3.614,-0.371,3097
3.615,-0.393,3097
3.616,-0.411,3097
3.617,-0.421,3097
3.618,-0.421,3097
3.619,-0.411,3097
3.620,-0.367,3097
3.621,-0.344,3097
3.622,-0.309,3097
3.623,-0.281,3097
3.624,-0.249,3097
3.625,-0.231,3097
3.626,-0.221,3097
3.627,-0.214,3097
3.628,-0.224,3097
3.629,-0.241,3097
3.630,-0.254,3097
3.631,-0.273,3097
3.632,-0.297,3078
3.633,-0.334,3078
3.634,-0.364,3078
3.635,-0.381,3078
3.636,-0.389,3078
3.637,-0.400,3078
3.638,-0.384,3078
3.639,-0.369,3078
3.640,-0.296,3078
3.641,-0.273,3074
3.642,-0.245,3074
3.643,-0.216,3074
3.644,-0.194,3074
3.645,-0.184,3074
3.646,-0.182,3074
3.647,-0.184,3074
3.648,-0.200,3074
3.649,-0.225,3074
3.650,-0.254,3074
3.651,-0.284,3083
3.652,-0.321,3083
3.653,-0.349,3083
3.654,-0.370,3083
3.655,-0.381,3083
3.656,-0.384,3083
3.657,-0.374,3083
3.658,-0.356,3083
3.659,-0.328,3083
3.660,-0.251,3082
3.661,-0.184,3082
3.662,-0.164,3082
3.663,-0.130,3082
3.664,-0.133,3082
3.665,-0.135,3082
3.666,-0.149,3082
3.667,-0.171,3082
3.668,-0.196,3082
3.669,-0.231,3082
3.670,-0.270,3092
3.671,-0.296,3092
3.672,-0.326,3092
3.673,-0.345,3092
3.674,-0.356,3092
3.675,-0.356,3092
3.676,-0.346,3092
3.677,-0.312,3092
3.678,-0.275,3092
3.679,-0.233,3092
3.680,-0.149,3085
3.681,-0.107,3085
3.682,-0.107,3085
3.683,-0.114,3085
3.684,-0.130,3085
3.685,-0.161,3085
3.686,-0.185,3085
3.687,-0.214,3085
3.688,-0.249,3075
3.689,-0.270,3075
3.690,-0.291,3075
3.691,-0.304,3075
3.692,-0.295,3075
3.693,-0.276,3075
3.694,-0.254,3075
3.695,-0.221,3075
3.696,-0.191,3075
3.697,-0.166,3075
3.698,-0.136,3066
3.699,-0.121,3066
3.700,-0.104,3066
3.701,-0.109,3066
3.702,-0.116,3066
3.703,-0.136,3066
3.704,-0.164,3066
3.705,-0.191,3066
3.706,-0.211,3066
3.707,-0.241,3093
3.708,-0.261,3093
3.709,-0.273,3093
3.710,-0.274,3093
3.711,-0.269,3093
3.712,-0.251,3093
3.713,-0.226,3093
3.714,-0.195,3093
3.715,-0.161,3093
3.716,-0.116,3093
3.717,-0.081,3066
3.718,-0.036,3066
3.719,-0.011,3066
3.720,0.026,3066
3.721,0.024,3066
3.722,0.010,3066
3.723,-0.021,3066
3.724,-0.044,3066
3.725,-0.044,3066
3.726,-0.106,3062
3.727,-0.131,3062
3.728,-0.160,3062
3.729,-0.174,3062
3.730,-0.181,3062
3.731,-0.175,3062
3.732,-0.161,3062
3.733,-0.136,3062
3.734,-0.110,3062
3.735,-0.084,3062
3.736,-0.049,3073
3.737,-0.024,3073
3.738,0.009,3073
3.739,0.019,3073
3.740,0.015,3073
3.741,0.010,3073
3.742,-0.011,3073
3.743,-0.030,3073
3.744,-0.058,3073
3.745,-0.090,3073
3.746,-0.120,3073
3.747,-0.146,3073
3.748,-0.161,3073
3.749,-0.165,3073
3.750,-0.164,3073
3.751,-0.150,3073
3.752,-0.129,3073
3.753,-0.102,3073
3.754,-0.064,3073
3.755,-0.031,3078
3.756,0.010,3078
3.757,0.039,3078
3.758,0.056,3078
3.759,0.064,3078
3.760,0.039,3078
3.761,0.021,3078
3.762,-0.014,3078
3.763,-0.044,3078
3.764,-0.081,3069
3.765,-0.116,3069
3.766,-0.136,3069
3.767,-0.152,3069
3.768,-0.161,3069
3.769,-0.161,3069
3.770,-0.141,3069
3.771,-0.120,3069
3.772,-0.090,3069
3.773,-0.056,3069
3.774,-0.026,3093
3.775,0.009,3093
3.776,0.029,3093
3.777,0.037,3093
3.778,0.039,3093
3.779,0.028,3093
3.780,-0.021,3093
3.781,-0.046,3093
3.782,-0.087,3093
3.783,-0.122,3081
3.784,-0.161,3081
3.785,-0.186,3081
3.786,-0.205,3081
3.787,-0.211,3081
3.788,-0.209,3081
3.789,-0.249,3081
3.790,-0.184,3081
3.791,-0.151,3081
3.792,-0.126,3081
3.793,-0.091,3077
3.794,-0.069,3077
3.795,-0.056,3077
3.796,-0.055,3077
3.797,-0.065,3077
3.798,-0.081,3077
3.799,-0.111,3077
3.800,-0.191,3077
3.801,-0.226,3077
3.802,-0.269,3092
3.803,-0.304,3092
3.804,-0.326,3092
3.805,-0.341,3092
3.806,-0.346,3092
3.807,-0.341,3092
3.808,-0.328,3092
3.809,-0.301,3092
3.810,-0.273,3092
3.811,-0.244,3092
3.812,-0.211,3095
3.813,-0.186,3095
3.814,-0.170,3095
3.815,-0.163,3095
3.816,-0.165,3095
3.817,-0.174,3095
3.818,-0.191,3095
3.819,-0.216,3095
3.820,-0.305,3095
3.821,-0.340,3105
3.822,-0.389,3105
3.823,-0.412,3105
3.824,-0.416,3105
3.825,-0.421,3105
3.826,-0.406,3105
3.827,-0.384,3105
3.828,-0.355,3105
3.829,-0.324,3105
3.830,-0.285,3093
3.831,-0.255,3093
3.832,-0.229,3093
3.833,-0.216,3093
3.834,-0.211,3093
3.835,-0.223,3093
3.836,-0.241,3093
3.837,-0.265,3093
3.838,-0.296,3093
3.839,-0.335,3093
3.840,-0.405,3081
3.841,-0.434,3081
3.842,-0.435,3081
3.843,-0.426,3081
3.844,-0.409,3081
3.845,-0.379,3081
3.846,-0.344,3081
3.847,-0.296,3081
3.848,-0.256,3109
3.849,-0.226,3109
3.850,-0.205,3109
3.851,-0.189,3109
3.852,-0.189,3109
3.853,-0.196,3109
3.854,-0.214,3109
3.855,-0.244,3109
3.856,-0.274,3109
3.857,-0.306,3109
3.858,-0.344,3102
3.859,-0.374,3102
3.860,-0.416,3102
3.861,-0.421,3102
3.862,-0.420,3102
3.863,-0.407,3102
3.864,-0.376,3102
3.865,-0.350,3102
3.866,-0.321,3102
3.867,-0.286,3102
3.868,-0.263,3102
3.869,-0.249,3102
3.870,-0.233,3102
3.871,-0.231,3102
3.872,-0.241,3102
3.873,-0.263,3102
3.874,-0.281,3102
3.875,-0.306,3102
3.876,-0.344,3102
3.877,-0.371,3086
3.878,-0.406,3086
3.879,-0.420,3086
3.880,-0.426,3086
3.881,-0.409,3086
3.882,-0.384,3086
3.883,-0.355,3086
3.884,-0.321,3086
3.885,-0.276,3086
3.886,-0.244,3078
3.887,-0.204,3078
3.888,-0.176,3078
3.889,-0.164,3078
3.890,-0.161,3078
3.891,-0.165,3078
3.892,-0.181,3078
3.893,-0.204,3078
3.894,-0.234,3078
3.895,-0.270,3078
3.896,-0.301,3082
3.897,-0.330,3082
3.898,-0.350,3082
3.899,-0.364,3082
3.900,-0.361,3082
3.901,-0.346,3082
3.902,-0.324,3082
3.903,-0.289,3082
3.904,-0.261,3082
3.905,-0.226,3080
3.906,-0.196,3080
3.907,-0.181,3080
3.908,-0.166,3080
3.909,-0.163,3080
3.910,-0.169,3080
3.911,-0.186,3080
3.912,-0.210,3080
3.913,-0.245,3080
3.914,-0.274,3080
3.915,-0.305,3080
3.916,-0.330,3090
3.917,-0.349,3090
3.918,-0.361,3090
3.919,-0.361,3090
3.920,-0.326,3090
3.921,-0.296,3090
3.922,-0.261,3090
3.923,-0.212,3090
3.924,-0.176,3090
3.925,-0.144,3093
3.926,-0.124,3093
3.927,-0.111,3093
3.928,-0.114,3093
3.929,-0.129,3093
3.930,-0.160,3093
3.931,-0.191,3093
3.932,-0.230,3093
3.933,-0.276,3093
3.934,-0.324,3093
3.935,-0.360,3077
3.936,-0.383,3077
3.937,-0.389,3077
3.938,-0.385,3077
3.939,-0.367,3077
3.940,-0.296,3077
3.941,-0.264,3077
3.942,-0.211,3077
3.943,-0.171,3068
3.944,-0.121,3068
3.945,-0.109,3068
3.946,-0.115,3068
3.947,-0.134,3068
3.948,-0.165,3068
3.949,-0.194,3068
3.950,-0.225,3068
3.951,-0.253,3068
3.952,-0.276,3090
3.953,-0.301,3090
3.954,-0.312,3090
3.955,-0.323,3090
3.956,-0.311,3090
3.957,-0.296,3090
3.958,-0.280,3090
3.959,-0.253,3090
3.960,-0.172,3074
3.961,-0.129,3074
3.962,-0.126,3074
3.963,-0.120,3074
3.964,-0.126,3074
3.965,-0.146,3074
3.966,-0.170,3074
3.967,-0.203,3074
3.968,-0.234,3074
3.969,-0.274,3074
3.970,-0.309,3083
3.971,-0.336,3083
3.972,-0.349,3083
3.973,-0.351,3083
3.974,-0.341,3083
3.975,-0.324,3083
3.976,-0.290,3083
3.977,-0.256,3083
3.978,-0.214,3083
3.979,-0.177,3083
3.980,-0.121,3076
3.981,-0.109,3076
3.982,-0.111,3076
3.983,-0.131,3076
3.984,-0.164,3076
3.985,-0.194,3076
3.986,-0.244,3076
3.987,-0.281,3076
3.988,-0.312,3082
3.989,-0.341,3082
3.990,-0.354,3082
3.991,-0.351,3082
3.992,-0.346,3082
3.993,-0.331,3082
3.994,-0.309,3082
3.995,-0.285,3082
3.996,-0.253,3082
3.997,-0.224,3082
3.998,-0.191,3077
3.999,-0.168,3077
4.000,-0.144,3077
4.001,-0.146,3077
4.002,-0.181,3077
4.003,-0.190,3077
4.004,-0.223,3077
4.005,-0.261,3077
4.006,-0.294,3077
4.007,-0.329,3072
4.008,-0.350,3072
4.009,-0.364,3072
4.010,-0.364,3072
4.011,-0.351,3072
4.012,-0.341,3072
4.013,-0.310,3072
4.014,-0.284,3072
4.015,-0.249,3072
4.016,-0.209,3072
4.017,-0.181,3079
4.018,-0.160,3079
4.019,-0.142,3079
4.020,-0.151,3079
4.021,-0.198,3079
4.022,-0.229,3079
4.023,-0.269,3079
4.024,-0.299,3079
4.025,-0.326,3074
4.026,-0.340,3074
4.027,-0.346,3074
4.028,-0.341,3074
4.029,-0.331,3074
4.030,-0.306,3074
4.031,-0.281,3074
4.032,-0.247,3074
4.033,-0.207,3074
4.034,-0.211,3074
4.035,-0.154,3095
4.036,-0.141,3095
4.037,-0.145,3095
4.038,-0.146,3095
4.039,-0.166,3095
4.040,-0.225,3095
4.041,-0.255,3095
4.042,-0.286,3095
4.043,-0.324,3095
4.044,-0.346,3098
4.045,-0.357,3098
4.046,-0.371,3098
4.047,-0.371,3098
4.048,-0.356,3098
4.049,-0.336,3098
4.050,-0.304,3098
4.051,-0.266,3098
4.052,-0.223,3098
4.053,-0.182,3098
4.054,-0.144,3100
4.055,-0.121,3100
4.056,-0.105,3100
4.057,-0.096,3100
4.058,-0.101,3100
4.059,-0.111,3100
4.060,-0.175,3100
4.061,-0.206,3100
4.062,-0.254,3100
4.063,-0.291,3086
4.064,-0.329,3086
4.065,-0.350,3086
4.066,-0.361,3086
4.067,-0.364,3086
4.068,-0.341,3086
4.069,-0.296,3086
4.070,-0.265,3086
4.071,-0.229,3086
4.072,-0.194,3092
4.073,-0.164,3092
4.074,-0.145,3092
4.075,-0.134,3092
4.076,-0.134,3092
4.077,-0.149,3092
4.078,-0.181,3092
4.079,-0.206,3092
4.080,-0.274,3092
4.081,-0.296,3086
4.082,-0.343,3086
4.083,-0.346,3086
4.084,-0.341,3086
4.085,-0.323,3086
4.086,-0.290,3086
4.087,-0.256,3086
4.088,-0.224,3086
4.089,-0.194,3086
4.090,-0.170,3095
4.091,-0.161,3095
4.092,-0.146,3095
4.093,-0.151,3095
4.094,-0.151,3095
4.095,-0.216,3095
4.096,-0.214,3095
4.097,-0.246,3095
4.098,-0.276,3095
4.099,-0.306,3095
4.100,-0.361,3101
4.101,-0.366,3101
4.102,-0.355,3101
4.103,-0.334,3101
4.104,-0.304,3101
4.105,-0.264,3101
4.106,-0.225,3101
4.107,-0.176,3101
4.108,-0.138,3088
4.109,-0.109,3088
4.110,-0.091,3088
4.111,-0.089,3088
4.112,-0.104,3088
4.113,-0.125,3088
4.114,-0.164,3088
4.115,-0.201,3088
4.116,-0.244,3088
4.117,-0.281,3088
4.118,-0.311,3078
4.119,-0.341,3078
4.120,-0.347,3078
4.121,-0.344,3078
4.122,-0.329,3078
4.123,-0.296,3078
4.124,-0.266,3078
4.125,-0.230,3078
4.126,-0.194,3078
4.127,-0.164,3090
4.128,-0.138,3090
4.129,-0.126,3090
4.130,-0.121,3090
4.131,-0.133,3090
4.132,-0.154,3090
4.133,-0.186,3090
4.134,-0.216,3090
4.135,-0.250,3090
4.136,-0.281,3090
4.137,-0.305,3090
4.138,-0.326,3090
4.139,-0.331,3090
4.140,-0.321,3090
4.141,-0.297,3090
4.142,-0.271,3090
4.143,-0.231,3090
4.144,-0.201,3090
4.145,-0.166,3090
4.146,-0.134,3076
4.147,-0.114,3076
4.148,-0.109,3076
4.149,-0.115,3076
4.150,-0.130,3076
4.151,-0.154,3076
4.152,-0.184,3076
4.153,-0.209,3076
4.154,-0.245,3076
4.155,-0.273,3076
4.156,-0.301,3090
4.157,-0.326,3090
4.158,-0.335,3090
4.159,-0.336,3090
4.160,-0.305,3090
4.161,-0.281,3090
4.162,-0.247,3090
4.163,-0.210,3090
4.164,-0.174,3090
4.165,-0.141,3090
4.166,-0.111,3076
4.167,-0.094,3076
4.168,-0.091,3076
4.169,-0.091,3076
4.170,-0.104,3076
4.171,-0.126,3076
4.172,-0.149,3076
4.173,-0.181,3076
4.174,-0.209,3076
4.175,-0.240,3076
4.176,-0.254,3072
4.177,-0.261,3072
4.178,-0.261,3072
4.179,-0.249,3072
4.180,-0.190,3072
4.181,-0.163,3072
4.182,-0.126,3072
4.183,-0.100,3072
4.184,-0.072,3072
4.185,-0.054,3068
4.186,-0.036,3068
4.187,-0.035,3068
4.188,-0.043,3068
4.189,-0.061,3068
4.190,-0.087,3068
4.191,-0.114,3068
4.192,-0.149,3068
4.193,-0.186,3068
4.194,-0.216,3068
4.195,-0.244,3071
4.196,-0.253,3071
4.197,-0.254,3071
4.198,-0.235,3071
4.199,-0.210,3071
4.200,-0.124,3071
4.201,-0.086,3071
4.202,-0.041,3071
4.203,-0.006,3071
4.204,0.029,3069
4.205,0.039,3069
4.206,0.039,3069
4.207,0.026,3069
4.208,-0.006,3069
4.209,-0.036,3069
4.210,-0.071,3069
4.211,-0.111,3069
4.212,-0.147,3069
4.213,-0.176,3069
4.214,-0.194,3067
4.215,-0.206,3067
4.216,-0.201,3067
4.217,-0.189,3067
4.218,-0.169,3067
4.219,-0.146,3067
4.220,-0.096,3067
4.221,-0.081,3067
4.222,-0.065,3067
4.223,-0.055,3076
4.224,-0.056,3076
4.225,-0.056,3076
4.226,-0.084,3076
4.227,-0.111,3076
4.228,-0.149,3076
4.229,-0.191,3076
4.230,-0.234,3076
4.231,-0.273,3076
4.232,-0.304,3076
4.233,-0.328,3079
4.234,-0.341,3079
4.235,-0.344,3079
4.236,-0.336,3079
4.237,-0.324,3079
4.238,-0.291,3079
4.239,-0.256,3079
4.240,-0.170,3079
4.241,-0.135,3079
4.242,-0.111,3077
4.243,-0.091,3077
4.244,-0.087,3077
4.245,-0.096,3077
4.246,-0.125,3077
4.247,-0.163,3077
4.248,-0.204,3077
4.249,-0.249,3077
4.250,-0.289,3077
4.251,-0.325,3077
4.252,-0.349,3074
4.253,-0.366,3074
4.254,-0.374,3074
4.255,-0.371,3074
4.256,-0.355,3074
4.257,-0.331,3074
4.258,-0.295,3074
4.259,-0.260,3074
4.260,-0.170,3074
4.261,-0.145,3080
4.262,-0.121,3080
4.263,-0.106,3080
4.264,-0.105,3080
4.265,-0.116,3080
4.266,-0.145,3080
4.267,-0.180,3080
4.268,-0.214,3080
4.269,-0.255,3080
4.270,-0.286,3080
4.271,-0.309,3073
4.272,-0.330,3073
4.273,-0.331,3073
4.274,-0.326,3073
4.275,-0.304,3073
4.276,-0.274,3073
4.277,-0.250,3073
4.278,-0.214,3073
4.279,-0.181,3073
4.280,-0.131,3099
4.281,-0.101,3099
4.282,-0.141,3099
4.283,-0.161,3099
4.284,-0.181,3099
4.285,-0.210,3099
4.286,-0.242,3099
4.287,-0.274,3099
4.288,-0.304,3099
4.289,-0.326,3092
4.290,-0.334,3092
4.291,-0.333,3092
4.292,-0.324,3092
4.293,-0.296,3092
4.294,-0.270,3092
4.295,-0.244,3092
4.296,-0.204,3092
4.297,-0.171,3092
4.298,-0.135,3092
4.299,-0.111,3082
4.300,-0.106,3082
4.301,-0.121,3082
4.302,-0.146,3082
4.303,-0.186,3082
4.304,-0.216,3082
4.305,-0.261,3082
4.306,-0.292,3082
4.307,-0.330,3082
4.308,-0.350,3096
4.309,-0.369,3096
4.310,-0.376,3096
4.311,-0.381,3096
4.312,-0.366,3096
4.313,-0.349,3096
4.314,-0.326,3096
4.315,-0.296,3096
4.316,-0.280,3096
4.317,-0.261,3096
4.318,-0.246,3069
4.319,-0.245,3069
4.320,-0.251,3069
4.321,-0.265,3069
4.322,-0.286,3069
4.323,-0.306,3069
4.324,-0.325,3069
4.325,-0.333,3069
4.326,-0.321,3069
4.327,-0.289,3072
4.328,-0.241,3072
4.329,-0.169,3072
4.330,-0.071,3072
4.331,0.048,3072
4.332,0.184,3072
4.333,0.330,3072
4.334,0.476,3072
4.335,0.647,3072
4.336,0.807,3072
4.337,0.974,3085
4.338,1.137,3085
4.339,1.302,3085
4.340,1.654,3085
4.341,1.809,3085
4.342,1.930,3085
4.343,2.055,3085
4.344,2.144,3085
4.345,2.211,3085
4.346,2.230,3104
4.347,2.219,3104
4.348,2.170,3104
4.349,2.079,3104
4.350,1.986,3104
4.351,1.876,3104
4.352,1.744,3104
4.353,1.614,3104
4.354,1.469,3104
4.355,1.310,3104
4.356,1.136,3077
4.357,0.955,3077
4.358,0.769,3077
4.359,0.594,3077
4.360,0.206,3077
4.361,0.035,3077
4.362,-0.095,3077
4.363,-0.224,3077
4.364,-0.341,3077
4.365,-0.434,3095
4.366,-0.511,3095
4.367,-0.565,3095
4.368,-0.589,3095
4.369,-0.601,3095
4.370,-0.596,3095
4.371,-0.584,3095
4.372,-0.568,3095
4.373,-0.541,3095
4.374,-0.511,3095
4.375,-0.486,3096
4.376,-0.464,3096
4.377,-0.446,3096
4.378,-0.434,3096
4.379,-0.426,3096
4.380,-0.431,3096
4.381,-0.444,3096
4.382,-0.461,3096
4.383,-0.471,3096
4.384,-0.485,3085
4.385,-0.490,3085
4.386,-0.490,3085
4.387,-0.484,3085
4.388,-0.464,3085
4.389,-0.441,3085
4.390,-0.410,3085
4.391,-0.375,3085
4.392,-0.351,3085
4.393,-0.326,3085
4.394,-0.307,3078
4.395,-0.296,3078
4.396,-0.296,3078
4.397,-0.305,3078
4.398,-0.326,3078
4.399,-0.349,3078
4.400,-0.424,3078
4.401,-0.470,3078
4.402,-0.491,3080
4.403,-0.502,3080
4.404,-0.496,3080
4.405,-0.491,3080
4.406,-0.471,3080
4.407,-0.449,3080
4.408,-0.421,3080
4.409,-0.383,3080
4.410,-0.344,3080
4.411,-0.306,3080
4.412,-0.271,3080
4.413,-0.250,3084
4.414,-0.242,3084
4.415,-0.241,3084
4.416,-0.251,3084
4.417,-0.273,3084
4.418,-0.296,3084
4.419,-0.329,3084
4.420,-0.375,3084
4.421,-0.390,3083
4.422,-0.406,3083
4.423,-0.405,3083
4.424,-0.401,3083
4.425,-0.383,3083
4.426,-0.354,3083
4.427,-0.324,3083
4.428,-0.289,3083
4.429,-0.254,3083
4.430,-0.229,3083
4.431,-0.211,3088
4.432,-0.205,3088
4.433,-0.211,3088
4.434,-0.229,3088
4.435,-0.256,3088
4.436,-0.286,3088
4.437,-0.334,3088
4.438,-0.366,3088
4.439,-0.401,3088
4.440,-0.438,3070
4.441,-0.426,3070
4.442,-0.406,3070
4.443,-0.372,3070
4.444,-0.334,3070
4.445,-0.294,3070
4.446,-0.256,3070
4.447,-0.223,3070
4.448,-0.195,3070
4.449,-0.181,3081
4.450,-0.171,3081
4.451,-0.176,3081
4.452,-0.196,3081
4.453,-0.225,3081
4.454,-0.264,3081
4.455,-0.302,3081
4.456,-0.341,3081
4.457,-0.369,3081
4.458,-0.391,3081
4.459,-0.410,3062
4.460,-0.411,3062
4.461,-0.391,3062
4.462,-0.370,3062
4.463,-0.335,3062
4.464,-0.296,3062
4.465,-0.256,3062
4.466,-0.186,3062
4.467,-0.191,3062
4.468,-0.172,3070
4.469,-0.166,3070
4.470,-0.170,3070
4.471,-0.185,3070
4.472,-0.211,3070
4.473,-0.244,3070
4.474,-0.273,3070
4.475,-0.304,3070
4.476,-0.333,3070
4.477,-0.354,3070
4.478,-0.361,3061
4.479,-0.357,3061
4.480,-0.324,3061
4.481,-0.291,3061
4.482,-0.261,3061
4.483,-0.221,3061
4.484,-0.186,3061
4.485,-0.161,3061
4.486,-0.131,3061
4.487,-0.114,3077
4.488,-0.111,3077
4.489,-0.114,3077
4.490,-0.134,3077
4.491,-0.164,3077
4.492,-0.194,3077
4.493,-0.229,3077
4.494,-0.266,3077
4.495,-0.289,3077
4.496,-0.307,3077
4.497,-0.321,3077
4.498,-0.321,3077
4.499,-0.307,3077
4.500,-0.261,3077
4.501,-0.229,3077
4.502,-0.194,3077
4.503,-0.151,3077
4.504,-0.121,3077
4.505,-0.090,3077
4.506,-0.071,3081
4.507,-0.066,3081
4.508,-0.071,3081
4.509,-0.089,3081
4.510,-0.116,3081
4.511,-0.147,3081
4.512,-0.184,3081
4.513,-0.216,3081
4.514,-0.246,3081
4.515,-0.268,3081
4.516,-0.282,3096
4.517,-0.284,3096
4.518,-0.284,3096
4.519,-0.264,3096
4.520,-0.196,3096
4.521,-0.166,3096
4.522,-0.121,3096
4.523,-0.084,3096
4.524,-0.050,3096
4.525,-0.031,3091
4.526,-0.024,3091
4.527,-0.026,3091
4.528,-0.036,3091
4.529,-0.056,3091
4.530,-0.086,3091
4.531,-0.121,3091
4.532,-0.152,3091
4.533,-0.181,3091
4.534,-0.204,3091
4.535,-0.215,3088
4.536,-0.219,3088
4.537,-0.209,3088
4.538,-0.186,3088
4.539,-0.149,3088
4.540,-0.071,3088
4.541,-0.014,3088
4.542,0.010,3088
4.543,0.015,3096
4.544,0.011,3096
4.545,-0.009,3096
4.546,-0.029,3096
4.547,-0.054,3096
4.548,-0.084,3096
4.549,-0.114,3096
4.550,-0.144,3096
4.551,-0.172,3096
4.552,-0.190,3096
4.553,-0.201,3094
4.554,-0.201,3094
4.555,-0.191,3094
4.556,-0.172,3094
4.557,-0.141,3094
4.558,-0.104,3094
4.559,-0.056,3094
4.560,0.035,3094
4.561,0.060,3094
4.562,0.079,3094
4.563,0.087,3094
4.564,0.071,3094
4.565,0.048,3094
4.566,0.014,3094
4.567,-0.030,3094
4.568,-0.071,3094
4.569,-0.114,3094
4.570,-0.149,3094
4.571,-0.181,3094
4.572,-0.191,3095
4.573,-0.196,3095
4.574,-0.189,3095
4.575,-0.169,3095
4.576,-0.138,3095
4.577,-0.104,3095
4.578,-0.066,3095
4.579,-0.030,3095
4.580,0.029,3095
4.581,0.035,3096
4.582,0.035,3096
4.583,0.026,3096
4.584,-0.004,3096
4.585,-0.034,3096
4.586,-0.069,3096
4.587,-0.106,3096
4.588,-0.141,3096
4.589,-0.175,3096
4.590,-0.194,3096
4.591,-0.209,3098
4.592,-0.212,3098
4.593,-0.207,3098
4.594,-0.194,3098
4.595,-0.171,3098
4.596,-0.136,3098
4.597,-0.106,3098
4.598,-0.071,3098
4.599,-0.049,3098
4.600,-0.030,3101
4.601,-0.050,3101
4.602,-0.084,3101
4.603,-0.120,3101
4.604,-0.164,3101
4.605,-0.205,3101
4.606,-0.246,3101
4.607,-0.281,3101
4.608,-0.307,3101
4.609,-0.324,3068
4.610,-0.334,3068
4.611,-0.326,3068
4.612,-0.307,3068
4.613,-0.284,3068
4.614,-0.254,3068
4.615,-0.221,3068
4.616,-0.194,3068
4.617,-0.172,3068
4.618,-0.154,3068
4.619,-0.151,3076
4.620,-0.190,3076
4.621,-0.196,3076
4.622,-0.292,3076
4.623,-0.335,3076
4.624,-0.375,3076
4.625,-0.411,3076
4.626,-0.436,3076
4.627,-0.449,3062
4.628,-0.450,3062
4.629,-0.446,3062
4.630,-0.425,3062
4.631,-0.393,3062
4.632,-0.362,3062
4.633,-0.326,3062
4.634,-0.291,3062
4.635,-0.264,3062
4.636,-0.233,3062
4.637,-0.221,3083
4.638,-0.216,3083
4.639,-0.228,3083
4.640,-0.281,3083
4.641,-0.309,3083
4.642,-0.349,3083
4.643,-0.386,3083
4.644,-0.424,3083
4.645,-0.448,3083
4.646,-0.465,3085
4.647,-0.471,3085
4.648,-0.464,3085
4.649,-0.449,3085
4.650,-0.426,3085
4.651,-0.401,3085
4.652,-0.361,3085
4.653,-0.321,3085
4.654,-0.292,3085
4.655,-0.265,3085
4.656,-0.246,3085
4.657,-0.244,3073
4.658,-0.249,3073
4.659,-0.269,3073
4.660,-0.334,3073
4.661,-0.356,3073
4.662,-0.389,3073
4.663,-0.416,3073
4.664,-0.435,3073
4.665,-0.451,3073
4.666,-0.456,3076
4.667,-0.451,3076
4.668,-0.444,3076
4.669,-0.421,3076
4.670,-0.384,3076
4.671,-0.349,3076
4.672,-0.312,3076
4.673,-0.281,3076
4.674,-0.249,3076
4.675,-0.234,3076
4.676,-0.231,3076
4.677,-0.241,3076
4.678,-0.261,3076
4.679,-0.289,3076
4.680,-0.365,3076
4.681,-0.394,3076
4.682,-0.429,3076
4.683,-0.451,3076
4.684,-0.465,3076
4.685,-0.463,3073
4.686,-0.450,3073
4.687,-0.432,3073
4.688,-0.405,3073
4.689,-0.366,3073
4.690,-0.326,3073
4.691,-0.284,3073
4.692,-0.251,3073
4.693,-0.221,3073
4.694,-0.204,3073
4.695,-0.195,3077
4.696,-0.194,3077
4.697,-0.209,3077
4.698,-0.226,3077
4.699,-0.256,3077
4.700,-0.335,3077
4.701,-0.384,3077
4.702,-0.406,3077
4.703,-0.412,3073
4.704,-0.406,3073
4.705,-0.391,3073
4.706,-0.364,3073
4.707,-0.344,3073
4.708,-0.311,3073
4.709,-0.291,3073
4.710,-0.264,3073
4.711,-0.250,3073
4.712,-0.241,3073
4.713,-0.231,3082
4.714,-0.273,3082
4.715,-0.263,3082
4.716,-0.280,3082
4.717,-0.304,3082
4.718,-0.335,3082
4.719,-0.364,3082
4.720,-0.405,3082
4.721,-0.409,3082
4.722,-0.403,3075
4.723,-0.384,3075
4.724,-0.356,3075
4.725,-0.334,3075
4.726,-0.295,3075
4.727,-0.261,3075
4.728,-0.224,3075
4.729,-0.191,3075
4.730,-0.166,3075
4.731,-0.149,3075
4.732,-0.149,3074
4.733,-0.166,3074
4.734,-0.186,3074
4.735,-0.212,3074
4.736,-0.250,3074
4.737,-0.287,3074
4.738,-0.329,3074
4.739,-0.362,3074
4.740,-0.404,3076
4.741,-0.390,3076
4.742,-0.369,3076
4.743,-0.336,3076
4.744,-0.296,3076
4.745,-0.263,3076
4.746,-0.224,3076
4.747,-0.193,3076
4.748,-0.169,3076
4.749,-0.147,3076
4.750,-0.144,3090
4.751,-0.150,3090
4.752,-0.171,3090
4.753,-0.196,3090
4.754,-0.230,3090
4.755,-0.269,3090
4.756,-0.301,3090
4.757,-0.334,3090
4.758,-0.355,3090
4.759,-0.364,3090
4.760,-0.351,3076
4.761,-0.296,3076
4.762,-0.271,3076
4.763,-0.241,3076
4.764,-0.205,3076
4.765,-0.175,3076
4.766,-0.152,3076
4.767,-0.136,3076
4.768,-0.134,3087
4.769,-0.144,3087
4.770,-0.166,3087
4.771,-0.194,3087
4.772,-0.226,3087
4.773,-0.263,3087
4.774,-0.291,3087
4.775,-0.329,3087
4.776,-0.351,3087
4.777,-0.361,3087
4.778,-0.356,3091
4.779,-0.346,3091
4.780,-0.285,3091
4.781,-0.214,3091
4.782,-0.186,3091
4.783,-0.166,3091
4.784,-0.149,3091
4.785,-0.141,3091
4.786,-0.145,3087
4.787,-0.164,3087
4.788,-0.181,3087
4.789,-0.201,3087
4.790,-0.229,3087
4.791,-0.268,3087
4.792,-0.301,3087
4.793,-0.334,3087
4.794,-0.355,3087
4.795,-0.367,3087
4.796,-0.369,3086
4.797,-0.350,3086
4.798,-0.329,3086
4.799,-0.292,3086
4.800,-0.211,3086
4.801,-0.176,3086
4.802,-0.149,3086
4.803,-0.136,3086
4.804,-0.126,3086
4.805,-0.129,3084
4.806,-0.142,3084
4.807,-0.169,3084
4.808,-0.203,3084
4.809,-0.244,3084
4.810,-0.276,3084
4.811,-0.314,3084
4.812,-0.346,3084
4.813,-0.369,3084
4.814,-0.385,3084
4.815,-0.386,3074
4.816,-0.381,3074
4.817,-0.365,3074
4.818,-0.344,3074
4.819,-0.312,3074
4.820,-0.249,3074
4.821,-0.223,3074
4.822,-0.193,3074
4.823,-0.172,3074
4.824,-0.166,3099
4.825,-0.170,3099
4.826,-0.189,3099
4.827,-0.211,3099
4.828,-0.246,3099
4.829,-0.274,3099
4.830,-0.306,3099
4.831,-0.331,3099
4.832,-0.352,3099
4.833,-0.365,3099
4.834,-0.369,3096
4.835,-0.364,3096
4.836,-0.345,3096
4.837,-0.324,3096
4.838,-0.289,3096
4.839,-0.254,3096
4.840,-0.191,3096
4.841,-0.164,3096
4.842,-0.154,3093
4.843,-0.166,3093
4.844,-0.182,3093
4.845,-0.210,3093
4.846,-0.242,3093
4.847,-0.270,3093
4.848,-0.302,3093
4.849,-0.329,3093
4.850,-0.351,3093
4.851,-0.356,3093
4.852,-0.361,3093
4.853,-0.351,3093
4.854,-0.333,3093
4.855,-0.304,3093
4.856,-0.266,3093
4.857,-0.229,3093
4.858,-0.196,3093
4.859,-0.168,3093
4.860,-0.129,3093
4.861,-0.125,3092
4.862,-0.130,3092
4.863,-0.149,3092
4.864,-0.174,3092
4.865,-0.205,3092
4.866,-0.244,3092
4.867,-0.271,3092
4.868,-0.304,3092
4.869,-0.326,3092
4.870,-0.341,3092
4.871,-0.344,3090
4.872,-0.340,3090
4.873,-0.324,3090
4.874,-0.290,3090
4.875,-0.261,3090
4.876,-0.228,3090
4.877,-0.206,3090
4.878,-0.184,3090
4.879,-0.170,3090
4.880,-0.164,3085
4.881,-0.196,3085
4.882,-0.224,3085
4.883,-0.255,3085
4.884,-0.287,3085
4.885,-0.311,3085
4.886,-0.341,3085
4.887,-0.356,3085
4.888,-0.365,3085
4.889,-0.367,3069
4.890,-0.366,3069
4.891,-0.346,3069
4.892,-0.324,3069
4.893,-0.287,3069
4.894,-0.246,3069
4.895,-0.207,3069
4.896,-0.171,3069
4.897,-0.141,3069
4.898,-0.125,3069
4.899,-0.124,3066
4.900,-0.166,3066
4.901,-0.188,3066
4.902,-0.224,3066
4.903,-0.261,3066
4.904,-0.296,3066
4.905,-0.329,3066
4.906,-0.351,3066
4.907,-0.366,3066
4.908,-0.369,3066
4.909,-0.361,3081
4.910,-0.341,3081
4.911,-0.307,3081
4.912,-0.273,3081
4.913,-0.230,3081
4.914,-0.194,3081
4.915,-0.161,3081
4.916,-0.130,3081
4.917,-0.114,3081
4.918,-0.111,3081
4.919,-0.114,3093
4.920,-0.164,3093
4.921,-0.188,3093
4.922,-0.221,3093
4.923,-0.251,3093
4.924,-0.274,3093
4.925,-0.291,3093
4.926,-0.292,3093
4.927,-0.291,3093
4.928,-0.271,3069
4.929,-0.250,3069
4.930,-0.217,3069
4.931,-0.181,3069
4.932,-0.136,3069
4.933,-0.104,3069
4.934,-0.070,3069
4.935,-0.050,3069
4.936,-0.034,3069
4.937,-0.034,3069
4.938,-0.045,3085
4.939,-0.071,3085
4.940,-0.149,3085
4.941,-0.186,3085
4.942,-0.224,3085
4.943,-0.245,3085
4.944,-0.264,3085
4.945,-0.271,3085
4.946,-0.273,3085
4.947,-0.265,3044
4.948,-0.249,3044
4.949,-0.216,3044
4.950,-0.188,3044
4.951,-0.146,3044
4.952,-0.107,3044
4.953,-0.070,3044
4.954,-0.043,3044
4.955,-0.016,3044
4.956,-0.009,3044
4.957,-0.010,3057
4.958,-0.026,3057
4.959,-0.054,3057
4.960,-0.171,3057
4.961,-0.174,3057
4.962,-0.206,3057
4.963,-0.231,3057
4.964,-0.253,3057
4.965,-0.255,3057
4.966,-0.249,3066
4.967,-0.231,3066
4.968,-0.209,3066
4.969,-0.181,3066
4.970,-0.145,3066
4.971,-0.109,3066
4.972,-0.072,3066
4.973,-0.049,3066
4.974,-0.044,3066
4.975,-0.046,3066
4.976,-0.062,3068
4.977,-0.090,3068
4.978,-0.128,3068
4.979,-0.169,3068
4.980,-0.266,3068
4.981,-0.294,3068
4.982,-0.326,3068
4.983,-0.346,3068
4.984,-0.354,3068
4.985,-0.350,3077
4.986,-0.335,3077
4.987,-0.320,3077
4.988,-0.292,3077
4.989,-0.269,3077
4.990,-0.245,3077
4.991,-0.211,3077
4.992,-0.189,3077
4.993,-0.174,3077
4.994,-0.171,3077
4.995,-0.176,3080
4.996,-0.199,3080
4.997,-0.224,3080
4.998,-0.251,3080
4.999,-0.289,3080
5.000,-0.369,3080
5.001,-0.386,3080
5.002,-0.404,3080
5.003,-0.401,3080
5.004,-0.385,3053
5.005,-0.367,3053
5.006,-0.343,3053
5.007,-0.304,3053
5.008,-0.266,3053
5.009,-0.224,3053
5.010,-0.190,3053
5.011,-0.166,3053
5.012,-0.150,3053
5.013,-0.150,3053
5.014,-0.169,3088
5.015,-0.191,3088
5.016,-0.221,3088
5.017,-0.254,3088
5.018,-0.290,3088
5.019,-0.330,3088
5.020,-0.378,3088
5.021,-0.386,3088
5.022,-0.388,3088
5.023,-0.374,3088
5.024,-0.354,3088
5.025,-0.324,3088
5.026,-0.282,3088
5.027,-0.249,3088
5.028,-0.210,3088
5.029,-0.184,3088
5.030,-0.164,3088
5.031,-0.147,3088
5.032,-0.144,3088
5.033,-0.151,3085
5.034,-0.174,3085
5.035,-0.201,3085
5.036,-0.230,3085
5.037,-0.274,3085
5.038,-0.321,3085
5.039,-0.352,3085
5.040,-0.409,3085
5.041,-0.411,3085
5.042,-0.401,3107
5.043,-0.379,3107
5.044,-0.354,3107
5.045,-0.324,3107
5.046,-0.284,3107
5.047,-0.231,3107
5.048,-0.207,3107
5.049,-0.172,3107
5.050,-0.161,3107
5.051,-0.160,3107
5.052,-0.172,3097
5.053,-0.204,3097
5.054,-0.233,3097
5.055,-0.275,3097
5.056,-0.314,3097
5.057,-0.351,3097
5.058,-0.383,3097
5.059,-0.405,3097
5.060,-0.429,3097
5.061,-0.425,3108
5.062,-0.411,3108
5.063,-0.389,3108
5.064,-0.355,3108
5.065,-0.343,3108
5.066,-0.324,3108
5.067,-0.302,3108
5.068,-0.292,3108
5.069,-0.289,3108
5.070,-0.296,3108
5.071,-0.310,3077
5.072,-0.336,3077
5.073,-0.364,3077
5.074,-0.385,3077
5.075,-0.403,3077
5.076,-0.404,3077
5.077,-0.386,3077
5.078,-0.356,3077
5.079,-0.304,3077
5.080,-0.106,3088
5.081,0.140,3088
5.082,0.289,3088
5.083,0.449,3088
5.084,0.608,3088
5.085,0.771,3088
5.086,0.934,3088
5.087,1.094,3088
5.088,1.245,3088
5.089,1.406,3083
5.090,1.569,3083
5.091,1.735,3083
5.092,1.889,3083
5.093,2.025,3083
5.094,2.124,3083
5.095,2.171,3083
5.096,2.184,3083
5.097,2.139,3083
5.098,2.065,3083
5.099,1.970,3100
5.100,1.724,3100
5.101,1.611,3100
5.102,1.479,3100
5.103,1.337,3100
5.104,1.191,3100
5.105,1.032,3100
5.106,0.869,3100
5.107,0.696,3100
5.108,0.512,3087
5.109,0.316,3087
5.110,0.136,3087
5.111,-0.036,3087
5.112,-0.196,3087
5.113,-0.341,3087
5.114,-0.454,3087
5.115,-0.546,3087
5.116,-0.616,3087
5.117,-0.669,3087
5.118,-0.689,3092
5.119,-0.694,3092
5.120,-0.649,3092
5.121,-0.606,3092
5.122,-0.574,3092
5.123,-0.535,3092
5.124,-0.506,3092
5.125,-0.484,3092
5.126,-0.487,3100
5.127,-0.504,3100
5.128,-0.524,3100
5.129,-0.544,3100
5.130,-0.569,3100
5.131,-0.589,3100
5.132,-0.608,3100
5.133,-0.614,3100
5.134,-0.615,3100
5.135,-0.610,3100
5.136,-0.589,3094
5.137,-0.562,3094
5.138,-0.524,3094
5.139,-0.474,3094
5.140,-0.370,3094
5.141,-0.341,3094
5.142,-0.306,3094
5.143,-0.290,3094
5.144,-0.284,3094
5.145,-0.289,3058
5.146,-0.304,3058
5.147,-0.336,3058
5.148,-0.361,3058
5.149,-0.391,3058
5.150,-0.430,3058
5.151,-0.456,3058
5.152,-0.484,3058
5.153,-0.494,3058
5.154,-0.494,3058
5.155,-0.486,3058
5.156,-0.463,3080
5.157,-0.429,3080
5.158,-0.394,3080
5.159,-0.364,3080
5.160,-0.311,3080
5.161,-0.286,3080
5.162,-0.276,3080
5.163,-0.281,3080
5.164,-0.291,3080
5.165,-0.321,3095
5.166,-0.351,3095
5.167,-0.385,3095
5.168,-0.422,3095
5.169,-0.453,3095
5.170,-0.481,3095
5.171,-0.496,3095
5.172,-0.496,3095
5.173,-0.489,3095
5.174,-0.466,3095
5.175,-0.434,3071
5.176,-0.400,3071
5.177,-0.356,3071
5.178,-0.326,3071
5.179,-0.289,3071
5.180,-0.231,3071
5.181,-0.221,3071
5.182,-0.216,3071
5.183,-0.225,3071
5.184,-0.240,3025
5.185,-0.256,3025
5.186,-0.282,3025
5.187,-0.321,3025
5.188,-0.354,3025
5.189,-0.383,3025
5.190,-0.411,3025
5.191,-0.430,3025
5.192,-0.434,3025
5.193,-0.430,3025
5.194,-0.414,3066
5.195,-0.386,3066
5.196,-0.350,3066
5.197,-0.306,3066
5.198,-0.271,3066
5.199,-0.235,3066
5.200,-0.204,3066
5.201,-0.199,3066
5.202,-0.209,3066
5.203,-0.229,3063
5.204,-0.261,3063
5.205,-0.286,3063
5.206,-0.323,3063
5.207,-0.350,3063
5.208,-0.374,3063
5.209,-0.401,3063
5.210,-0.409,3063
5.211,-0.412,3063
5.212,-0.406,3063
5.213,-0.391,3055
5.214,-0.370,3055
5.215,-0.347,3055
5.216,-0.320,3055
5.217,-0.286,3055
5.218,-0.251,3055
5.219,-0.219,3055
5.220,-0.185,3055
5.221,-0.185,3074
5.222,-0.215,3074
5.223,-0.246,3074
5.224,-0.269,3074
5.225,-0.294,3074
5.226,-0.321,3074
5.227,-0.334,3074
5.228,-0.344,3074
5.229,-0.344,3074
5.230,-0.331,3074
5.231,-0.310,3087
5.232,-0.286,3087
5.233,-0.254,3087
5.234,-0.214,3087
5.235,-0.181,3087
5.236,-0.152,3087
5.237,-0.131,3087
5.238,-0.121,3087
5.239,-0.116,3087
5.240,-0.149,3083
5.241,-0.206,3083
5.242,-0.241,3083
5.243,-0.269,3083
5.244,-0.294,3083
5.245,-0.307,3083
5.246,-0.323,3083
5.247,-0.311,3083
5.248,-0.304,3083
5.249,-0.286,3083
5.250,-0.261,3083
5.251,-0.229,3083
5.252,-0.191,3083
5.253,-0.164,3083
5.254,-0.129,3083
5.255,-0.105,3083
5.256,-0.090,3083
5.257,-0.084,3083
5.258,-0.085,3083
5.259,-0.094,3081
5.260,-0.145,3081
5.261,-0.175,3081
5.262,-0.206,3081
5.263,-0.233,3081
5.264,-0.264,3081
5.265,-0.274,3081
5.266,-0.281,3081
5.267,-0.271,3081
5.268,-0.256,3083
5.269,-0.219,3083
5.270,-0.184,3083
5.271,-0.136,3083
5.272,-0.066,3083
5.273,-0.065,3083
5.274,-0.045,3083
5.275,-0.031,3083
5.276,-0.026,3083
5.277,-0.039,3083
5.278,-0.055,3089
5.279,-0.081,3089
5.280,-0.149,3089
5.281,-0.172,3089
5.282,-0.203,3089
5.283,-0.217,3089
5.284,-0.230,3089
5.285,-0.224,3089
5.286,-0.206,3089
5.287,-0.176,3108
5.288,-0.144,3108
5.289,-0.110,3108
5.290,-0.071,3108
5.291,-0.030,3108
5.292,0.010,3108
5.293,0.039,3108
5.294,0.059,3108
5.295,0.064,3108
5.296,0.054,3108
5.297,0.034,3100
5.298,-0.003,3100
5.299,-0.031,3100
5.300,-0.122,3100
5.301,-0.164,3100
5.302,-0.211,3100
5.303,-0.201,3100
5.304,-0.209,3100
5.305,-0.204,3100
5.306,-0.188,3101
5.307,-0.161,3101
5.308,-0.126,3101
5.309,-0.089,3101
5.310,-0.044,3101
5.311,-0.006,3101
5.312,0.030,3101
5.313,0.046,3101
5.314,0.051,3101
5.315,0.049,3101
5.316,0.034,3112
5.317,0.011,3112
5.318,-0.029,3112
5.319,-0.069,3112
5.320,-0.151,3112
5.321,-0.181,3112
5.322,-0.194,3112
5.323,-0.195,3112
5.324,-0.184,3112
5.325,-0.164,3109
5.326,-0.135,3109
5.327,-0.104,3109
5.328,-0.066,3109
5.329,-0.030,3109
5.330,0.006,3109
5.331,0.026,3109
5.332,0.036,3109
5.333,0.046,3109
5.334,0.039,3109
5.335,0.026,3086
5.336,-0.009,3086
5.337,-0.041,3086
5.338,-0.081,3086
5.339,-0.120,3086
5.340,-0.189,3086
5.341,-0.201,3086
5.342,-0.211,3086
5.343,-0.214,3086
5.344,-0.206,3101
5.345,-0.189,3101
5.346,-0.169,3101
5.347,-0.144,3101
5.348,-0.115,3101
5.349,-0.091,3101
5.350,-0.074,3101
5.351,-0.069,3101
5.352,-0.069,3101
5.353,-0.074,3101
5.354,-0.090,3050
5.355,-0.114,3050
5.356,-0.136,3050
5.357,-0.169,3050
5.358,-0.201,3050
5.359,-0.234,3050
5.360,-0.291,3050
5.361,-0.302,3050
5.362,-0.296,3050
5.363,-0.291,3101
5.364,-0.276,3101
5.365,-0.261,3101
5.366,-0.241,3101
5.367,-0.211,3101
5.368,-0.196,3101
5.369,-0.182,3101
5.370,-0.176,3101
5.371,-0.184,3101
5.372,-0.196,3101
5.373,-0.221,3081
5.374,-0.255,3081
5.375,-0.291,3081
5.376,-0.330,3081
5.377,-0.365,3081
5.378,-0.390,3081
5.379,-0.416,3081
5.380,-0.432,3081
5.381,-0.426,3081
5.382,-0.406,3089
5.383,-0.344,3089
5.384,-0.309,3089
5.385,-0.273,3089
5.386,-0.244,3089
5.387,-0.217,3089
5.388,-0.210,3089
5.389,-0.206,3089
5.390,-0.215,3089
5.391,-0.242,3079
5.392,-0.269,3079
5.393,-0.301,3079
5.394,-0.341,3079
5.395,-0.374,3079
5.396,-0.406,3079
5.397,-0.429,3079
5.398,-0.444,3079
5.399,-0.443,3079
5.400,-0.409,3080
5.401,-0.347,3080
5.402,-0.309,3080
5.403,-0.271,3080
5.404,-0.246,3080
5.405,-0.219,3080
5.406,-0.207,3080
5.407,-0.207,3080
5.408,-0.216,3080
5.409,-0.241,3080
5.410,-0.266,3097
5.411,-0.294,3097
5.412,-0.324,3097
5.413,-0.356,3097
5.414,-0.383,3097
5.415,-0.405,3097
5.416,-0.414,3097
5.417,-0.412,3097
5.418,-0.401,3097
5.419,-0.371,3097
5.420,-0.304,3074
5.421,-0.249,3074
5.422,-0.216,3074
5.423,-0.194,3074
5.424,-0.181,3074
5.425,-0.174,3074
5.426,-0.186,3074
5.427,-0.206,3082
5.428,-0.231,3082
5.429,-0.269,3082
5.430,-0.311,3082
5.431,-0.354,3082
5.432,-0.386,3082
5.433,-0.412,3082
5.434,-0.429,3082
5.435,-0.426,3082
5.436,-0.415,3082
5.437,-0.391,3082
5.438,-0.365,3077
5.439,-0.334,3077
5.440,-0.256,3077
5.441,-0.221,3077
5.442,-0.194,3077
5.443,-0.174,3077
5.444,-0.161,3077
5.445,-0.164,3077
5.446,-0.181,3077
5.447,-0.206,3075
5.448,-0.244,3075
5.449,-0.280,3075
5.450,-0.314,3075
5.451,-0.349,3075
5.452,-0.376,3075
5.453,-0.391,3075
5.454,-0.401,3075
5.455,-0.389,3075
5.456,-0.366,3075
5.457,-0.285,3072
5.458,-0.304,3072
5.459,-0.273,3072
5.460,-0.219,3072
5.461,-0.204,3072
5.462,-0.189,3072
5.463,-0.184,3072
5.464,-0.188,3072
5.465,-0.203,3072
5.466,-0.224,3065
5.467,-0.255,3065
5.468,-0.281,3065
5.469,-0.310,3065
5.470,-0.340,3065
5.471,-0.356,3065
5.472,-0.374,3065
5.473,-0.374,3065
5.474,-0.364,3065
5.475,-0.336,3065
5.476,-0.306,3075
5.477,-0.269,3075
5.478,-0.226,3075
5.479,-0.189,3075
5.480,-0.126,3075
5.481,-0.121,3075
5.482,-0.121,3075
5.483,-0.135,3075
5.484,-0.164,3075
5.485,-0.194,3083
5.486,-0.229,3083
5.487,-0.264,3083
5.488,-0.292,3083
5.489,-0.321,3083
5.490,-0.336,3083
5.491,-0.346,3083
5.492,-0.343,3083
5.493,-0.331,3083
5.494,-0.306,3083
5.495,-0.285,3078
5.496,-0.254,3078
5.497,-0.226,3078
5.498,-0.203,3078
5.499,-0.175,3078
5.500,-0.136,3078
5.501,-0.136,3078
5.502,-0.144,3078
5.503,-0.161,3078
5.504,-0.184,3091
5.505,-0.209,3091
5.506,-0.245,3091
5.507,-0.269,3091
5.508,-0.301,3091
5.509,-0.326,3091
5.510,-0.341,3091
5.511,-0.341,3091
5.512,-0.331,3091
5.513,-0.307,3091
5.514,-0.281,3090
5.515,-0.250,3090
5.516,-0.216,3090
5.517,-0.189,3090
5.518,-0.164,3090
5.519,-0.139,3090
5.520,-0.129,3090
5.521,-0.135,3090
5.522,-0.151,3090
5.523,-0.174,3082
5.524,-0.205,3082
5.525,-0.241,3082
5.526,-0.271,3082
5.527,-0.302,3082
5.528,-0.326,3082
5.529,-0.343,3082
5.530,-0.344,3082
5.531,-0.331,3082
5.532,-0.309,3082
5.533,-0.286,3083
5.534,-0.263,3083
5.535,-0.226,3083
5.536,-0.196,3083
5.537,-0.171,3083
5.538,-0.149,3083
5.539,-0.136,3083
5.540,-0.146,3083
5.541,-0.169,3083
5.542,-0.189,3092
5.543,-0.214,3092
5.544,-0.246,3092
5.545,-0.271,3092
5.546,-0.295,3092
5.547,-0.321,3092
5.548,-0.333,3092
5.549,-0.336,3092
5.550,-0.330,3092
5.551,-0.271,3092
5.552,-0.296,3070
5.553,-0.254,3070
5.554,-0.224,3070
5.555,-0.191,3070
5.556,-0.166,3070
5.557,-0.144,3070
5.558,-0.136,3070
5.559,-0.136,3070
5.560,-0.180,3070
5.561,-0.207,3099
5.562,-0.268,3099
5.563,-0.292,3099
5.564,-0.314,3099
5.565,-0.335,3099
5.566,-0.346,3099
5.567,-0.350,3099
5.568,-0.344,3099
5.569,-0.325,3099
5.570,-0.294,3087
5.571,-0.265,3087
5.572,-0.226,3087
5.573,-0.194,3087
5.574,-0.164,3087
5.575,-0.136,3087
5.576,-0.121,3087
5.577,-0.114,3087
5.578,-0.121,3087
5.579,-0.139,3087
5.580,-0.211,3103
5.581,-0.286,3103
5.582,-0.321,3103
5.583,-0.343,3103
5.584,-0.357,3103
5.585,-0.361,3103
5.586,-0.352,3103
5.587,-0.334,3103
5.588,-0.306,3089
5.589,-0.281,3089
5.590,-0.249,3089
5.591,-0.214,3089
5.592,-0.188,3089
5.593,-0.165,3089
5.594,-0.149,3089
5.595,-0.146,3089
5.596,-0.151,3089
5.597,-0.171,3089
5.598,-0.194,3098
5.599,-0.226,3098
5.600,-0.294,3098
5.601,-0.310,3098
5.602,-0.334,3098
5.603,-0.343,3098
5.604,-0.344,3098
5.605,-0.331,3098
5.606,-0.306,3098
5.607,-0.276,3087
5.608,-0.244,3087
5.609,-0.204,3087
5.610,-0.171,3087
5.611,-0.136,3087
5.612,-0.116,3087
5.613,-0.121,3087
5.614,-0.121,3087
5.615,-0.136,3087
5.616,-0.169,3087
5.617,-0.206,3108
5.618,-0.250,3108
5.619,-0.289,3108
