Czas(s),EKG_Surowe(mV),PPG_Surowe(ADC)
0.000,-1.097,3127
0.004,-0.647,3127
0.008,-0.122,3109
0.012,0.448,3109
0.016,0.940,3109
0.020,1.317,3109
0.024,1.485,3109
0.028,1.488,3109
0.032,1.272,3109
0.036,0.912,3109
0.040,0.430,3109
0.044,-0.100,3109
0.048,-0.662,3106
0.052,-1.232,3106
0.056,-1.740,3106
0.060,-2.107,3106
0.064,-2.283,3106
0.068,-2.283,3106
0.072,-2.067,3106
0.076,-1.688,3106
0.080,-0.573,3109
0.084,0.460,3109
0.088,0.948,3109
0.092,1.333,3109
0.096,1.478,3109
0.100,1.472,3109
0.104,1.258,3109
0.108,0.892,3109
0.112,0.417,3109
0.116,-0.113,3109
0.120,-0.670,3107
0.124,-1.228,3107
0.128,-1.728,3107
0.132,-2.087,3107
0.136,-2.252,3107
0.140,-2.248,3107
0.144,-2.033,3107
0.148,-1.667,3107
0.152,-1.183,3107
0.156,-0.662,3107
0.160,0.530,3109
0.164,1.300,3109
0.168,1.468,3109
0.172,1.452,3109
0.176,1.248,3109
0.180,0.875,3109
0.184,0.400,3109
0.188,-0.128,3109
0.192,-0.685,3114
0.196,-1.248,3114
0.200,-1.745,3114
0.204,-2.103,3114
0.208,-2.275,3114
0.212,-2.268,3114
0.216,-2.060,3114
0.220,-1.702,3114
0.224,-1.212,3114
0.228,-0.682,3114
0.232,-0.125,3120
0.236,0.450,3120
0.240,1.353,3120
0.244,1.492,3120
0.248,1.488,3120
0.252,1.262,3120
0.256,0.902,3120
0.260,0.422,3120
0.264,-0.110,3120
0.268,-0.682,3123
0.272,-1.248,3123
0.276,-1.742,3123
0.280,-2.098,3123
0.284,-2.260,3123
0.288,-2.252,3123
0.292,-2.042,3123
0.296,-1.673,3123
0.300,-1.183,3123
0.304,-0.667,3123
0.308,-0.110,3139
0.312,0.458,3139
0.316,0.948,3139
0.320,1.512,3139
0.324,1.478,3139
0.328,1.300,3139
0.332,0.855,3139
0.336,0.438,3139
0.340,-0.083,3139
0.344,-0.623,3126
0.348,-1.188,3126
0.352,-1.688,3126
0.356,-2.042,3126
0.360,-2.208,3126
0.364,-2.208,3126
0.368,-2.015,3126
0.372,-1.657,3126
0.376,-1.173,3126
0.380,-0.657,3126
0.384,-0.113,3139
0.388,0.458,3139
0.392,0.938,3139
0.396,1.308,3139
0.400,1.448,3139
0.404,1.252,3139
0.408,0.887,3139
0.412,0.417,3139
0.416,-0.107,3139
0.420,-0.662,3154
0.424,-1.225,3154
0.428,-1.728,3154
0.432,-2.087,3154
0.436,-2.252,3154
0.440,-2.230,3154
0.444,-2.027,3154
0.448,-1.667,3154
0.452,-1.177,3154
0.456,-0.662,3154
0.460,-0.075,3143
0.464,0.455,3143
0.468,0.948,3143
0.472,1.323,3143
0.476,1.492,3143
0.480,1.220,3143
0.484,0.902,3143
0.488,0.422,3143
0.492,-0.102,3143
0.496,-0.660,3133
0.500,-1.225,3133
0.504,-1.712,3133
0.508,-2.062,3133
0.512,-2.220,3133
0.516,-2.208,3133
0.520,-2.005,3133
0.524,-1.643,3133
0.528,-1.153,3133
0.532,-0.623,3133
0.536,-0.072,3135
0.540,0.492,3135
0.544,0.980,3135
0.548,1.345,3135
0.552,1.510,3135
0.556,1.500,3135
0.560,0.833,3135
0.564,0.398,3135
0.568,-0.113,3135
0.572,-0.667,3131
0.576,-1.248,3131
0.580,-1.732,3131
0.584,-2.083,3131
0.588,-2.243,3131
0.592,-2.220,3131
0.596,-2.022,3131
0.600,-1.657,3131
0.604,-1.165,3131
0.608,-0.645,3131
0.612,-0.087,3148
0.616,0.472,3148
0.620,0.978,3148
0.624,1.345,3148
0.628,1.512,3148
0.632,1.508,3148
0.636,1.298,3148
0.640,0.347,3148
0.644,-0.098,3148
0.648,-0.672,3132
0.652,-1.252,3132
0.656,-1.740,3132
0.660,-2.098,3132
0.664,-2.260,3132
0.668,-2.250,3132
0.672,-2.030,3132
0.676,-1.670,3132
0.680,-1.177,3132
0.684,-0.652,3132
0.688,-0.107,3121
0.692,0.438,3121
0.696,0.927,3121
0.700,1.278,3121
0.704,1.462,3121
0.708,1.452,3121
0.712,1.230,3121
0.716,0.870,3121
0.720,-0.215,3121
0.724,-0.682,3127
0.728,-1.232,3127
0.732,-1.732,3127
0.736,-2.092,3127
0.740,-2.263,3127
0.744,-2.245,3127
0.748,-2.047,3127
0.752,-1.673,3127
0.756,-1.185,3127
0.760,-0.662,3127
0.764,-0.102,3136
0.768,0.468,3136
0.772,0.953,3136
0.776,1.337,3136
0.780,1.505,3136
0.784,1.502,3136
0.788,1.302,3136
0.792,0.917,3136
0.796,0.438,3136
0.800,-0.743,3128
0.804,-1.745,3128
0.808,-2.062,3128
0.812,-2.223,3128
0.816,-2.203,3128
0.820,-2.007,3128
0.824,-1.647,3128
0.828,-1.147,3128
0.832,-0.615,3128
0.836,-0.070,3129
0.840,0.500,3129
0.844,0.993,3129
0.848,1.337,3129
0.852,1.500,3129
0.856,1.472,3129
0.860,1.252,3129
0.864,0.875,3129
0.868,0.380,3129
0.872,-0.138,3129
0.876,-0.698,3129
0.880,-1.827,3135
0.884,-2.263,3135
0.888,-2.248,3135
0.892,-2.045,3135
0.896,-1.675,3135
0.900,-1.188,3135
0.904,-0.657,3135
0.908,-0.098,3135
0.912,0.460,3113
0.916,0.978,3113
0.920,1.333,3113
0.924,1.495,3113
0.928,1.482,3113
0.932,1.252,3113
0.936,0.870,3113
0.940,0.388,3113
0.944,-0.145,3113
0.948,-0.728,3113
0.952,-1.295,3125
0.956,-1.790,3125
0.960,-2.292,3125
0.964,-2.257,3125
0.968,-2.033,3125
0.972,-1.650,3125
0.976,-1.143,3125
0.980,-0.603,3125
0.984,-0.055,3125
0.988,0.525,3117
0.992,1.025,3117
0.996,1.377,3117
1.000,1.538,3117
1.004,1.518,3117
1.008,1.302,3117
1.012,0.902,3117
1.016,0.410,3117
1.020,-0.128,3117
1.024,-0.693,3117
1.028,-1.255,3112
1.032,-1.772,3112
1.036,-2.107,3112
1.040,-2.223,3112
1.044,-2.033,3112
1.048,-1.657,3112
1.052,-1.167,3112
1.056,-0.642,3112
1.060,-0.090,3112
1.064,0.463,3113
1.068,0.958,3113
1.072,1.312,3113
1.076,1.482,3113
1.080,1.465,3113
1.084,1.238,3113
1.088,0.860,3113
1.092,0.372,3113
1.096,-0.168,3113
1.100,-0.723,3113
1.104,-1.292,3103
1.108,-1.782,3103
1.112,-2.112,3103
1.116,-2.263,3103
1.120,-1.970,3103
1.124,-1.643,3103
1.128,-1.143,3103
1.132,-0.610,3103
1.136,-0.062,3103
1.140,0.497,3111
1.144,0.993,3111
1.148,1.333,3111
1.152,1.498,3111
1.156,1.482,3111
1.160,1.252,3111
1.164,0.887,3111
1.168,0.398,3111
1.172,-0.122,3111
1.176,-0.685,3111
1.180,-1.230,3103
1.184,-1.732,3103
1.188,-2.087,3103
1.192,-2.230,3103
1.196,-2.215,3103
1.200,-1.570,3103
1.204,-1.163,3103
1.208,-0.642,3103
1.212,-0.083,3103
1.216,0.477,3111
1.220,0.988,3111
1.224,1.343,3111
1.228,1.518,3111
1.232,1.498,3111
1.236,1.298,3111
1.240,0.917,3111
1.244,0.430,3111
1.248,-0.102,3111
1.252,-0.688,3111
1.256,-1.230,3108
1.260,-1.738,3108
1.264,-2.062,3108
1.268,-2.225,3108
1.272,-2.212,3108
1.276,-2.002,3108
1.280,-1.058,3108
1.284,-0.620,3108
1.288,-0.083,3108
1.292,0.468,3112
1.296,0.978,3112
1.300,1.310,3112
1.304,1.468,3112
1.308,1.452,3112
1.312,1.218,3112
1.316,0.848,3112
1.320,0.357,3112
1.324,-0.182,3112
1.328,-0.738,3112
1.332,-1.302,3132
1.336,-1.792,3132
1.340,-2.127,3132
1.344,-2.280,3132
1.348,-2.252,3132
1.352,-2.030,3132
1.356,-1.660,3132
1.360,-0.540,3132
1.364,-0.077,3132
1.368,0.477,3134
1.372,0.988,3134
1.376,1.345,3134
1.380,1.502,3134
1.384,1.492,3134
1.388,1.248,3134
1.392,0.868,3134
1.396,0.375,3134
1.400,-0.165,3134
1.404,-0.713,3134
1.408,-1.268,3140
1.412,-1.778,3140
1.416,-2.107,3140
1.420,-2.252,3140
1.424,-2.215,3140
1.428,-1.988,3140
1.432,-1.617,3140
1.436,-1.127,3140
1.440,0.052,3140
1.444,0.537,3136
1.448,1.018,3136
1.452,1.355,3136
1.456,1.518,3136
1.460,1.500,3136
1.464,1.272,3136
1.468,0.900,3136
1.472,0.417,3136
1.476,-0.113,3136
1.480,-0.670,3136
1.484,-1.232,3118
1.488,-1.740,3118
1.492,-2.092,3118
1.496,-2.255,3118
1.500,-2.228,3118
1.504,-2.027,3118
1.508,-1.663,3118
1.512,-1.177,3118
1.516,-0.652,3118
1.520,0.555,3133
1.524,1.327,3133
1.528,1.482,3133
1.532,1.462,3133
1.536,1.248,3133
1.540,0.877,3133
1.544,0.398,3133
1.548,-0.130,3133
1.552,-0.690,3133
1.556,-1.232,3126
1.560,-1.760,3126
1.564,-2.098,3126
1.568,-2.252,3126
1.572,-2.228,3126
1.576,-2.018,3126
1.580,-1.653,3126
1.584,-1.163,3126
1.588,-0.625,3126
1.592,-0.072,3126
1.596,0.500,3127
1.600,1.387,3127
1.604,1.502,3127
1.608,1.488,3127
1.612,1.262,3127
1.616,0.873,3127
1.620,0.400,3127
1.624,-0.128,3127
1.628,-0.690,3127
1.632,-1.248,3119
1.636,-1.772,3119
1.640,-2.268,3119
1.644,-2.243,3119
1.648,-2.022,3119
1.652,-1.647,3119
1.656,-1.150,3119
1.660,-0.618,3119
1.664,-0.058,3119
1.668,0.512,3145
1.672,1.012,3145
1.676,1.367,3145
1.680,1.468,3145
1.684,1.250,3145
1.688,0.887,3145
1.692,0.398,3145
1.696,-0.138,3145
1.700,-0.698,3145
1.704,-1.260,3135
1.708,-1.788,3135
1.712,-2.123,3135
1.716,-2.268,3135
1.720,-2.243,3135
1.724,-2.018,3135
1.728,-1.645,3135
1.732,-1.140,3135
1.736,-0.605,3135
1.740,-0.052,3135
1.744,0.517,3122
1.748,1.018,3122
1.752,1.357,3122
1.756,1.512,3122
1.760,1.198,3122
1.764,0.858,3122
1.768,0.393,3122
1.772,-0.135,3122
1.776,-0.690,3122
1.780,-1.235,3125
1.784,-1.742,3125
1.788,-2.087,3125
1.792,-2.243,3125
1.796,-2.217,3125
1.800,-2.007,3125
1.804,-1.640,3125
1.808,-1.147,3125
1.812,-0.623,3125
1.816,-0.068,3125
1.820,0.492,3133
1.824,0.988,3133
1.828,1.337,3133
1.832,1.498,3133
1.836,1.472,3133
1.840,0.797,3133
1.844,0.393,3133
1.848,-0.142,3133
1.852,-0.693,3133
1.856,-1.248,3127
1.860,-1.762,3127
1.864,-2.090,3127
1.868,-2.248,3127
1.872,-2.212,3127
1.876,-1.995,3127
1.880,-1.620,3127
1.884,-1.127,3127
1.888,-0.590,3127
1.892,-0.043,3127
1.896,0.532,3127
1.900,1.028,3122
1.904,1.383,3122
1.908,1.532,3122
1.912,1.508,3122
1.916,1.262,3122
1.920,0.300,3122
1.924,-0.142,3122
1.928,-0.708,3122
1.932,-1.260,3122
1.936,-1.768,3124
1.940,-2.105,3124
1.944,-2.250,3124
1.948,-2.212,3124
1.952,-1.988,3124
1.956,-1.610,3124
1.960,-1.107,3124
1.964,-0.578,3124
1.968,-0.030,3124
1.972,0.532,3124
1.976,1.018,3101
1.980,1.367,3101
1.984,1.512,3101
1.988,1.492,3101
1.992,1.258,3101
1.996,0.870,3101
2.000,-0.258,3101
2.004,-0.752,3101
2.008,-1.302,3101
2.012,-1.802,3116
2.016,-2.132,3116
2.020,-2.272,3116
2.024,-2.228,3116
2.028,-2.015,3116
2.032,-1.643,3116
2.036,-1.137,3116
2.040,-0.618,3116
2.044,-0.058,3116
2.048,0.497,3116
2.052,0.993,3113
2.056,1.347,3113
2.060,1.498,3113
2.064,1.472,3113
2.068,1.252,3113
2.072,0.870,3113
2.076,0.393,3113
2.080,-0.775,3113
2.084,-1.238,3113
2.088,-1.738,3103
2.092,-2.087,3103
2.096,-2.223,3103
2.100,-2.192,3103
2.104,-1.988,3103
2.108,-1.610,3103
2.112,-1.125,3103
2.116,-0.595,3103
2.120,-0.052,3103
2.124,0.507,3103
2.128,0.993,3109
2.132,1.347,3109
2.136,1.502,3109
2.140,1.480,3109
2.144,1.252,3109
2.148,0.873,3109
2.152,0.388,3109
2.156,-0.142,3109
2.160,-1.367,3095
2.164,-2.107,3095
2.168,-2.257,3095
2.172,-2.243,3095
2.176,-2.018,3095
2.180,-1.653,3095
2.184,-1.163,3095
2.188,-0.642,3095
2.192,-0.087,3095
2.196,0.458,3095
2.200,0.948,3109
2.204,1.315,3109
2.208,1.472,3109
2.212,1.462,3109
2.216,1.238,3109
2.220,0.870,3109
2.224,0.390,3109
2.228,-0.133,3109
2.232,-0.693,3109
2.236,-1.232,3109
2.240,-2.112,3109
2.244,-2.192,3109
2.248,-1.982,3109
2.252,-1.607,3109
2.256,-1.107,3109
2.260,-0.580,3109
2.264,-0.025,3109
2.268,0.527,3109
2.272,1.030,3107
2.276,1.380,3107
2.280,1.538,3107
2.284,1.512,3107
2.288,1.300,3107
2.292,0.905,3107
2.296,0.415,3107
2.300,-0.113,3107
2.304,-0.672,3107
2.308,-1.238,3107
2.312,-1.742,3112
2.316,-2.103,3112
2.320,-2.208,3112
2.324,-2.007,3112
2.328,-1.650,3112
2.332,-1.150,3112
2.336,-0.620,3112
2.340,-0.062,3112
2.344,0.502,3112
2.348,0.988,3095
2.352,1.347,3095
2.356,1.500,3095
2.360,1.475,3095
2.364,1.248,3095
2.368,0.873,3095
2.372,0.388,3095
2.376,-0.140,3095
2.380,-0.700,3095
2.384,-1.252,3095
2.388,-1.780,3134
2.392,-2.098,3134
2.396,-2.228,3134
2.400,-1.927,3134
2.404,-1.605,3134
2.408,-1.060,3134
2.412,-0.578,3134
2.416,-0.043,3134
2.420,0.530,3134
2.424,1.018,3115
2.428,1.367,3115
2.432,1.512,3115
2.436,1.492,3115
2.440,1.262,3115
2.444,0.887,3115
2.448,0.398,3115
2.452,-0.128,3115
2.456,-0.693,3115
2.460,-1.238,3115
2.464,-1.735,3140
2.468,-2.062,3140
2.472,-2.212,3140
2.476,-2.190,3140
2.480,-1.538,3140
2.484,-1.127,3140
2.488,-0.588,3140
2.492,-0.050,3140
2.496,0.515,3140
2.500,1.002,3130
2.504,1.347,3130
2.508,1.500,3130
2.512,1.472,3130
2.516,1.248,3130
2.520,0.865,3130
2.524,0.375,3130
2.528,-0.163,3130
2.532,-0.723,3130
2.536,-1.298,3130
2.540,-1.790,3134
2.544,-2.125,3134
2.548,-2.288,3134
2.552,-2.257,3134
2.556,-2.027,3134
2.560,-1.058,3134
2.564,-0.618,3134
2.568,-0.068,3134
2.572,0.497,3134
2.576,0.993,3142
2.580,1.340,3142
2.584,1.488,3142
2.588,1.460,3142
2.592,1.228,3142
2.596,0.848,3142
2.600,0.365,3142
2.604,-0.172,3142
2.608,-0.725,3142
2.612,-1.295,3142
2.616,-1.780,3128
2.620,-2.127,3128
2.624,-2.268,3128
2.628,-2.243,3128
2.632,-2.015,3128
2.636,-1.633,3128
2.640,-0.532,3128
2.644,-0.052,3128
2.648,0.608,3128
2.652,0.998,3129
2.656,1.345,3129
2.660,1.502,3129
2.664,1.485,3129
2.668,1.252,3129
2.672,0.877,3129
2.676,0.388,3129
2.680,-0.140,3129
2.684,-0.700,3129
2.688,-1.250,3129
2.692,-1.742,3135
2.696,-2.092,3135
2.700,-2.230,3135
2.704,-2.203,3135
2.708,-1.982,3135
2.712,-1.607,3135
2.716,-1.105,3135
2.720,0.077,3135
2.724,0.542,3135
2.728,1.028,3094
2.732,1.367,3094
2.736,1.508,3094
2.740,1.472,3094
2.744,1.232,3094
2.748,0.853,3094
2.752,0.357,3094
2.756,-0.180,3094
2.760,-0.738,3094
2.764,-1.305,3094
2.768,-1.792,3113
2.772,-2.138,3113
2.776,-2.280,3113
2.780,-2.245,3113
2.784,-2.007,3113
2.788,-1.617,3113
2.792,-1.127,3113
2.796,-0.583,3113
2.800,0.615,3113
2.804,1.022,3076
2.808,1.373,3076
2.812,1.512,3076
2.816,1.498,3076
2.820,1.262,3076
2.824,0.885,3076
2.828,0.395,3076
2.832,-0.133,3076
2.836,-0.698,3076
2.840,-1.258,3076
2.844,-1.768,3129
2.848,-2.112,3129
2.852,-2.257,3129
2.856,-2.225,3129
2.860,-2.005,3129
2.864,-1.627,3129
2.868,-1.127,3129
2.872,-0.588,3129
2.876,-0.033,3129
2.880,1.090,3130
2.884,1.508,3130
2.888,1.488,3130
2.892,1.238,3130
2.896,0.860,3130
2.900,0.367,3130
2.904,-0.168,3130
2.908,-0.725,3130
2.912,-1.292,3130
2.916,-1.780,3132
2.920,-2.112,3132
2.924,-2.257,3132
2.928,-2.217,3132
2.932,-1.992,3132
2.936,-1.627,3132
2.940,-1.137,3132
2.944,-0.610,3132
2.948,-0.068,3132
2.952,0.500,3132
2.956,0.983,3132
2.960,1.472,3112
2.964,1.212,3112
2.968,0.838,3112
2.972,0.352,3112
2.976,-0.172,3112
2.980,-0.733,3112
2.984,-1.298,3112
2.988,-1.778,3112
2.992,-2.107,3095
2.996,-2.248,3095
3.000,-2.208,3095
3.004,-1.982,3095
3.008,-1.603,3095
3.012,-1.097,3095
3.016,-0.573,3095
3.020,-0.028,3095
3.024,0.532,3095
3.028,1.018,3095
3.032,1.350,3109
3.036,1.500,3109
3.040,1.177,3109
3.044,0.848,3109
3.048,0.352,3109
3.052,-0.172,3109
3.056,-0.733,3109
3.060,-1.292,3109
3.064,-1.782,3109
3.068,-2.103,3115
3.072,-2.250,3115
3.076,-2.203,3115
3.080,-1.978,3115
3.084,-1.600,3115
3.088,-1.097,3115
3.092,-0.578,3115
3.096,-0.040,3115
3.100,0.527,3115
3.104,1.012,3115
3.108,1.340,3108
3.112,1.488,3108
3.116,1.435,3108
3.120,0.738,3108
3.124,0.307,3108
3.128,-0.217,3108
3.132,-0.743,3108
3.136,-1.302,3108
3.140,-1.788,3108
3.144,-2.112,3103
3.148,-2.257,3103
3.152,-2.215,3103
3.156,-1.962,3103
3.160,-1.603,3103
3.164,-1.103,3103
3.168,-0.575,3103
3.172,-0.022,3103
3.176,0.537,3103
3.180,1.052,3103
3.184,1.357,3091
3.188,1.508,3091
3.192,1.478,3091
3.196,1.248,3091
3.200,0.292,3091
3.204,-0.163,3091
3.208,-0.708,3091
3.212,-1.262,3091
3.216,-1.768,3091
3.220,-2.090,3107
3.224,-2.220,3107
3.228,-2.180,3107
3.232,-1.950,3107
3.236,-1.552,3107
3.240,-1.062,3107
3.244,-0.537,3107
3.248,0.028,3107
3.252,0.578,3107
3.256,1.058,3107
3.260,1.397,3111
3.264,1.538,3111
3.268,1.500,3111
3.272,1.252,3111
3.276,0.855,3111
3.280,-0.263,3111
3.284,-0.745,3111
3.288,-1.312,3111
3.292,-1.792,3111
3.296,-2.120,3123
3.300,-2.268,3123
3.304,-2.228,3123
3.308,-2.007,3123
3.312,-1.617,3123
3.316,-1.110,3123
3.320,-0.588,3123
3.324,-0.033,3123
3.328,0.530,3123
3.332,1.008,3123
3.336,1.343,3122
3.340,1.498,3122
3.344,1.468,3122
3.348,1.230,3122
3.352,0.850,3122
3.356,0.357,3122
3.360,-0.828,3122
3.364,-1.300,3122
3.368,-1.790,3122
3.372,-2.123,3125
3.376,-2.265,3125
3.380,-2.223,3125
3.384,-1.998,3125
3.388,-1.620,3125
3.392,-1.127,3125
3.396,-0.588,3125
3.400,-0.028,3125
3.404,0.535,3125
3.408,1.020,3125
3.412,1.357,3131
3.416,1.512,3131
3.420,1.478,3131
3.424,1.238,3131
3.428,0.860,3131
3.432,0.367,3131
3.436,-0.165,3131
3.440,-1.380,3131
3.444,-1.802,3131
3.448,-2.103,3132
3.452,-2.230,3132
3.456,-2.185,3132
3.460,-1.972,3132
3.464,-1.583,3132
3.468,-1.087,3132
3.472,-0.552,3132
3.476,0.013,3132
3.480,0.568,3132
3.484,1.035,3132
3.488,1.383,3148
3.492,1.510,3148
3.496,1.472,3148
3.500,1.238,3148
3.504,0.853,3148
3.508,0.365,3148
3.512,-0.180,3148
3.516,-0.738,3148
3.520,-1.863,3148
3.524,-2.143,3148
3.528,-2.272,3148
3.532,-2.243,3148
3.536,-2.013,3148
3.540,-1.627,3148
3.544,-1.133,3148
3.548,-0.573,3148
3.552,-0.043,3148
3.556,0.542,3148
3.560,1.028,3148
3.564,1.367,3099
3.568,1.510,3099
3.572,1.185,3099
3.576,0.623,3099
3.580,-0.185,3099
3.584,-0.738,3099
3.588,-1.302,3099
3.592,-1.782,3099
3.596,-2.103,3145
3.600,-2.163,3145
3.604,-1.972,3145
3.608,-1.577,3145
3.612,-1.087,3145
3.616,-0.562,3145
3.620,-0.013,3145
3.624,0.540,3145
3.628,1.018,3145
3.632,1.353,3142
3.636,1.492,3142
3.640,1.458,3142
3.644,1.215,3142
3.648,0.835,3142
3.652,0.347,3142
3.656,-0.180,3142
3.660,-0.738,3142
3.664,-1.302,3142
3.668,-1.788,3142
3.672,-2.107,3153
3.676,-2.255,3153
3.680,-1.940,3153
3.684,-1.617,3153
3.688,-1.130,3153
3.692,-0.608,3153
3.696,-0.060,3153
3.700,0.502,3153
3.704,0.988,3153
3.708,1.337,3132
3.712,1.488,3132
3.716,1.455,3132
3.720,1.220,3132
3.724,0.838,3132
3.728,0.347,3132
3.732,-0.182,3132
3.736,-0.738,3132
3.740,-1.300,3132
3.744,-1.778,3132
3.748,-2.098,3128
3.752,-2.243,3128
3.756,-2.197,3128
3.760,-1.495,3128
3.764,-1.075,3128
3.768,-0.552,3128
3.772,-0.013,3128
3.776,0.547,3128
3.780,1.030,3128
3.784,1.357,3122
3.788,1.498,3122
3.792,1.465,3122
3.796,1.222,3122
3.800,0.848,3122
3.804,0.352,3122
3.808,-0.180,3122
3.812,-0.743,3122
3.816,-1.323,3122
3.820,-1.790,3122
3.824,-2.112,3127
3.828,-2.257,3127
3.832,-2.217,3127
3.836,-1.992,3127
3.840,-1.035,3127
3.844,-0.588,3127
3.848,-0.033,3127
3.852,0.532,3127
3.856,1.020,3127
3.860,1.353,3128
3.864,1.492,3128
3.868,1.452,3128
3.872,1.218,3128
3.876,0.848,3128
3.880,0.343,3128
3.884,-0.188,3128
3.888,-0.743,3128
3.892,-1.302,3128
3.896,-1.782,3128
3.900,-2.105,3112
3.904,-2.255,3112
3.908,-2.208,3112
3.912,-1.982,3112
3.916,-1.583,3112
3.920,-0.463,3112
3.924,-0.010,3112
3.928,0.578,3112
3.932,1.038,3112
3.936,1.373,3108
3.940,1.512,3108
3.944,1.468,3108
3.948,1.225,3108
3.952,0.823,3108
3.956,0.345,3108
3.960,-0.203,3108
3.964,-0.762,3108
3.968,-1.327,3108
3.972,-1.805,3108
3.976,-2.123,3122
3.980,-2.268,3122
3.984,-2.217,3122
3.988,-1.982,3122
3.992,-1.603,3122
3.996,-1.090,3122
4.000,0.098,3122
4.004,0.550,3122
4.008,1.038,3122
4.012,1.367,3122
4.016,1.500,3117
4.020,1.458,3117
4.024,1.212,3117
4.028,0.825,3117
4.032,0.338,3117
4.036,-0.193,3117
4.040,-0.745,3117
4.044,-1.310,3117
4.048,-1.780,3117
4.052,-2.103,3117
4.056,-2.243,3115
4.060,-2.195,3115
4.064,-1.978,3115
4.068,-1.577,3115
4.072,-1.090,3115
4.076,-0.562,3115
4.080,0.627,3115
4.084,1.030,3115
4.088,1.350,3115
4.092,1.482,3119
4.096,1.423,3119
4.100,1.185,3119
4.104,0.797,3119
4.108,0.310,3119
4.112,-0.203,3119
4.116,-0.757,3119
4.120,-1.325,3119
4.124,-1.800,3119
4.128,-2.123,3119
4.132,-2.252,3118
4.136,-2.210,3118
4.140,-1.978,3118
4.144,-1.600,3118
4.148,-1.093,3118
4.152,-0.562,3118
4.156,-0.010,3118
4.160,1.107,3118
4.164,1.373,3118
4.168,1.510,3123
4.172,1.470,3123
4.176,1.222,3123
4.180,0.853,3123
4.184,0.352,3123
4.188,-0.188,3123
4.192,-0.750,3123
4.196,-1.327,3123
4.200,-1.808,3123
4.204,-2.130,3123
4.208,-2.265,3111
4.212,-2.215,3111
4.216,-2.002,3111
4.220,-1.607,3111
4.224,-1.107,3111
4.228,-0.583,3111
4.232,-0.028,3111
4.236,0.537,3111
4.240,1.397,3119
4.244,1.458,3119
4.248,1.218,3119
4.252,0.833,3119
4.256,0.340,3119
4.260,-0.190,3119
4.264,-0.752,3119
4.268,-1.327,3119
4.272,-1.802,3119
4.276,-2.130,3119
4.280,-2.263,3117
4.284,-2.217,3117
4.288,-1.985,3117
4.292,-1.600,3117
4.296,-1.083,3117
4.300,-0.547,3117
4.304,0.020,3117
4.308,0.578,3117
4.312,1.065,3117
4.316,1.393,3117
4.320,1.462,3121
4.324,0.843,3121
4.328,0.350,3121
4.332,-0.228,3121
4.336,-0.767,3121
4.340,-1.323,3121
4.344,-1.792,3121
4.348,-2.107,3121
4.352,-2.248,3111
4.356,-2.183,3111
4.360,-1.955,3111
4.364,-1.567,3111
4.368,-1.067,3111
4.372,-0.545,3111
4.376,-0.007,3111
4.380,0.547,3111
4.384,1.022,3111
4.388,1.353,3111
4.392,1.498,3111
4.396,1.450,3111
4.400,0.743,3111
4.404,0.312,3111
4.408,-0.207,3111
4.412,-0.770,3111
4.416,-1.337,3111
4.420,-1.812,3111
4.424,-2.127,3111
4.428,-2.263,3132
4.432,-2.212,3132
4.436,-1.982,3132
4.440,-1.583,3132
4.444,-1.083,3132
4.448,-0.545,3132
4.452,0.025,3132
4.456,0.583,3132
4.460,1.062,3132
4.464,1.383,3132
4.468,1.518,3116
4.472,1.472,3116
4.476,1.228,3116
4.480,0.245,3116
4.484,-0.212,3116
4.488,-0.770,3116
4.492,-1.333,3116
4.496,-1.815,3116
4.500,-2.130,3116
4.504,-2.260,3117
4.508,-2.208,3117
4.512,-1.982,3117
4.516,-1.600,3117
4.520,-1.097,3117
4.524,-0.573,3117
4.528,-0.022,3117
4.532,0.537,3117
4.536,1.018,3117
4.540,1.343,3117
4.544,1.478,3127
4.548,1.433,3127
4.552,1.202,3127
4.556,0.818,3127
4.560,-0.367,3127
4.564,-0.777,3127
4.568,-1.353,3127
4.572,-1.785,3127
4.576,-2.147,3127
4.580,-2.257,3127
4.584,-2.208,3127
4.588,-1.972,3127
4.592,-1.583,3127
4.596,-1.087,3127
4.600,-0.570,3127
4.604,-0.028,3127
4.608,0.532,3127
4.612,1.020,3127
4.616,1.347,3127
4.620,1.488,3100
4.624,1.433,3100
4.628,1.185,3100
4.632,0.782,3100
4.636,0.280,3100
4.640,-0.897,3100
4.644,-1.365,3100
4.648,-1.840,3100
4.652,-2.145,3100
4.656,-2.268,3146
4.660,-2.210,3146
4.664,-1.970,3146
4.668,-1.567,3146
4.672,-1.067,3146
4.676,-0.537,3146
4.680,0.022,3146
4.684,0.578,3146
4.688,1.058,3146
4.692,1.385,3146
4.696,1.512,3147
4.700,1.468,3147
4.704,1.192,3147
4.708,0.815,3147
4.712,0.302,3147
4.716,-0.223,3147
4.720,-1.425,3147
4.724,-1.853,3147
4.728,-2.123,3147
4.732,-2.252,3128
4.736,-2.197,3128
4.740,-1.970,3128
4.744,-1.570,3128
4.748,-1.067,3128
4.752,-0.540,3128
4.756,0.025,3128
4.760,0.568,3128
4.764,1.048,3128
4.768,1.377,3128
4.772,1.512,3130
4.776,1.462,3130
4.780,1.220,3130
4.784,0.828,3130
4.788,0.335,3130
4.792,-0.212,3130
4.796,-0.772,3130
4.800,-1.885,3130
4.804,-2.132,3130
4.808,-2.265,3131
4.812,-2.208,3131
4.816,-1.975,3131
4.820,-1.567,3131
4.824,-1.067,3131
4.828,-0.537,3131
4.832,0.022,3131
4.836,0.557,3131
4.840,1.038,3131
4.844,1.377,3131
4.848,1.512,3136
4.852,1.462,3136
4.856,1.218,3136
4.860,0.825,3136
4.864,0.335,3136
4.868,-0.212,3136
4.872,-0.777,3136
4.876,-1.347,3136
4.880,-2.183,3136
4.884,-2.292,3129
4.888,-2.248,3129
4.892,-2.002,3129
4.896,-1.610,3129
4.900,-1.097,3129
4.904,-0.573,3129
4.908,-0.007,3129
4.912,0.557,3129
4.916,1.048,3129
4.920,1.380,3129
4.924,1.515,3143
4.928,1.472,3143
4.932,1.222,3143
4.936,0.833,3143
4.940,0.340,3143
4.944,-0.207,3143
4.948,-0.772,3143
4.952,-1.340,3143
4.956,-1.823,3143
4.960,-2.272,3125
4.964,-1.952,3125
4.968,-1.577,3125
4.972,-1.073,3125
4.976,-0.547,3125
4.980,0.018,3125
4.984,0.568,3125
4.988,1.052,3125
4.992,1.373,3125
4.996,1.502,3119
5.000,1.450,3119
5.004,1.192,3119
5.008,0.792,3119
5.012,0.300,3119
5.016,-0.230,3119
5.020,-0.802,3119
5.024,-1.363,3119
5.028,-1.840,3119
5.032,-2.140,3119
5.036,-2.263,3119
5.040,-1.927,3117
5.044,-1.025,3117
5.048,-0.542,3117
5.052,-0.003,3117
5.056,0.552,3117
5.060,1.038,3117
5.064,1.377,3117
5.068,1.508,3117
5.072,1.452,3117
5.076,1.192,3117
5.080,0.797,3117
5.084,0.247,3117
5.088,-0.233,3117
5.092,-0.805,3117
5.096,-1.353,3117
5.100,-1.833,3117
5.104,-2.138,3117
5.108,-2.272,3117
5.112,-2.217,3112
5.116,-1.975,3112
5.120,-0.988,3112
5.124,-0.512,3112
5.128,0.028,3112
5.132,0.583,3112
5.136,1.067,3112
5.140,1.397,3112
5.144,1.535,3112
5.148,1.488,3124
5.152,1.230,3124
5.156,0.828,3124
5.160,0.318,3124
5.164,-0.217,3124
5.168,-0.782,3124
5.172,-1.353,3124
5.176,-1.827,3124
5.180,-2.138,3124
5.184,-2.270,3124
5.188,-2.217,3111
5.192,-1.978,3111
5.196,-1.583,3111
5.200,-0.463,3111
5.204,0.028,3111
5.208,0.557,3111
5.212,1.032,3111
5.216,1.373,3111
5.220,1.508,3111
5.224,1.462,3111
5.228,1.215,3111
5.232,0.823,3111
5.236,0.338,3111
5.240,-0.205,3111
5.244,-0.752,3111
5.248,-1.323,3111
5.252,-1.802,3111
5.256,-2.107,3111
5.260,-2.245,3111
5.264,-2.183,3115
5.268,-1.933,3115
5.272,-1.540,3115
5.276,-1.035,3115
5.280,0.138,3115
5.284,0.588,3115
5.288,1.065,3115
5.292,1.383,3115
5.296,1.510,3115
5.300,1.462,3120
5.304,1.198,3120
5.308,0.792,3120
5.312,0.302,3120
5.316,-0.225,3120
5.320,-0.787,3120
5.324,-1.347,3120
5.328,-1.820,3120
5.332,-2.132,3120
5.336,-2.265,3120
5.340,-2.210,3111
5.344,-1.968,3111
5.348,-1.573,3111
5.352,-1.070,3111
5.356,-0.542,3111
5.360,0.637,3111
5.364,1.028,3111
5.368,1.357,3111
5.372,1.498,3111
5.376,1.450,3131
5.380,1.188,3131
5.384,0.780,3131
5.388,0.292,3131
5.392,-0.242,3131
5.396,-0.782,3131
5.400,-1.353,3131
5.404,-1.827,3131
5.408,-2.140,3131
5.412,-2.268,3131
5.416,-2.215,3093
5.420,-1.975,3093
5.424,-1.583,3093
5.428,-1.083,3093
5.432,-0.562,3093
5.436,-0.013,3093
5.440,1.087,3093
5.444,1.353,3093
5.448,1.478,3093
5.452,1.420,3118
5.456,1.170,3118
5.460,0.777,3118
5.464,0.278,3118
5.468,-0.247,3118
5.472,-0.782,3118
5.476,-1.377,3118
5.480,-1.817,3118
5.484,-2.112,3118
5.488,-2.243,3118
5.492,-2.183,3129
5.496,-1.942,3129
5.500,-1.540,3129
5.504,-1.058,3129
5.508,-0.532,3129
5.512,0.037,3129
5.516,0.585,3129
5.520,1.427,3129
5.524,1.528,3129
5.528,1.462,3106
5.532,1.205,3106
5.536,0.818,3106
5.540,0.312,3106
5.544,-0.207,3106
5.548,-0.767,3106
5.552,-1.327,3106
5.556,-1.792,3106
5.560,-2.103,3106
5.564,-2.228,3106
5.568,-2.183,3137
5.572,-1.948,3137
5.576,-1.560,3137
5.580,-1.067,3137
5.584,-0.545,3137
5.588,-0.007,3137
5.592,0.547,3137
5.596,1.020,3137
5.600,1.470,3137
5.604,1.413,3131
5.608,1.153,3131
5.612,0.755,3131
5.616,0.268,3131
5.620,-0.253,3131
5.624,-0.810,3131
5.628,-1.353,3131
5.632,-1.823,3131
5.636,-2.127,3131
5.640,-2.250,3131
5.644,-2.183,3127
5.648,-1.938,3127
5.652,-1.538,3127
5.656,-1.028,3127
5.660,-0.497,3127
5.664,0.060,3127
5.668,0.598,3127
5.672,1.065,3127
5.676,1.380,3127
5.680,1.413,3146
5.684,0.780,3146
5.688,0.287,3146
5.692,-0.247,3146
5.696,-0.807,3146
5.700,-1.363,3146
5.704,-1.833,3146
5.708,-2.147,3146
5.712,-2.275,3146
5.716,-2.192,3119
5.720,-1.968,3119
5.724,-1.550,3119
5.728,-1.050,3119
5.732,-0.502,3119
5.736,0.060,3119
5.740,0.618,3119
5.744,1.090,3119
5.748,1.417,3119
5.752,1.542,3119
5.756,1.498,3143
5.760,0.748,3143
5.764,0.338,3143
5.768,-0.210,3143
5.772,-0.772,3143
5.776,-1.337,3143
5.780,-1.810,3143
5.784,-2.107,3143
5.788,-2.223,3143
5.792,-2.163,3124
5.796,-1.930,3124
5.800,-1.540,3124
5.804,-1.032,3124
5.808,-0.520,3124
5.812,0.045,3124
5.816,0.583,3124
5.820,1.058,3124
5.824,1.375,3124
5.828,1.508,3124
5.832,1.452,3134
5.836,1.180,3134
5.840,0.188,3134
5.844,-0.287,3134
5.848,-0.828,3134
5.852,-1.380,3134
5.856,-1.847,3134
5.860,-2.163,3134
5.864,-2.268,3134
5.868,-2.210,3138
5.872,-1.962,3138
5.876,-1.552,3138
5.880,-1.052,3138
5.884,-0.507,3138
5.888,0.052,3138
5.892,0.595,3138
5.896,1.073,3138
5.900,1.387,3138
5.904,1.515,3138
5.908,1.462,3141
5.912,1.208,3141
5.916,0.800,3141
5.920,-0.287,3141
5.924,-0.767,3141
5.928,-1.327,3141
5.932,-1.792,3141
5.936,-2.103,3141
5.940,-2.223,3141
5.944,-2.178,3123
5.948,-1.938,3123
5.952,-1.542,3123
5.956,-1.032,3123
5.960,-0.502,3123
5.964,0.062,3123
5.968,0.608,3123
5.972,1.093,3123
5.976,1.417,3123
5.980,1.542,3123
5.984,1.498,3135
5.988,1.228,3135
5.992,0.830,3135
5.996,0.338,3135
6.000,-0.882,3135
6.004,-1.373,3135
6.008,-1.827,3135
6.012,-2.132,3135
6.016,-2.260,3135
6.020,-2.208,3120
6.024,-1.968,3120
6.028,-1.567,3120
6.032,-1.062,3120
6.036,-0.537,3120
6.040,0.037,3120
6.044,0.588,3120
6.048,1.070,3120
6.052,1.393,3120
6.056,1.528,3120
6.060,1.475,3114
6.064,1.212,3114
6.068,0.823,3114
6.072,0.333,3114
6.076,-0.203,3114
6.080,-1.413,3114
6.084,-1.825,3114
6.088,-2.112,3114
6.092,-2.243,3114
6.096,-2.185,3114
6.100,-1.942,3113
6.104,-1.532,3113
6.108,-1.032,3113
6.112,-0.507,3113
6.116,0.060,3113
6.120,0.593,3113
6.124,1.067,3113
6.128,1.380,3113
6.132,1.502,3113
6.136,1.433,3113
6.140,1.177,3111
6.144,0.770,3111
6.148,0.278,3111
6.152,-0.250,3111
6.156,-0.815,3111
6.160,-1.900,3111
6.164,-2.143,3111
6.168,-2.263,3111
6.172,-2.192,3111
6.176,-1.952,3097
6.180,-1.548,3097
6.184,-1.058,3097
6.188,-0.537,3097
6.192,0.037,3097
6.196,0.578,3097
6.200,1.058,3097
6.204,1.377,3097
6.208,1.502,3097
6.212,1.433,3097
6.216,1.188,3126
6.220,0.782,3126
6.224,0.295,3126
6.228,-0.217,3126
6.232,-0.802,3126
6.236,-1.353,3126
6.240,-2.163,3126
6.244,-2.257,3126
6.248,-2.192,3126
6.252,-1.938,3109
6.256,-1.532,3109
6.260,-1.042,3109
6.264,-0.525,3109
6.268,0.045,3109
6.272,0.583,3109
6.276,1.067,3109
6.280,1.373,3109
6.284,1.498,3109
6.288,1.427,3109
6.292,1.188,3121
6.296,0.775,3121
6.300,0.287,3121
6.304,-0.233,3121
6.308,-0.802,3121
6.312,-1.353,3121
6.316,-1.823,3121
6.320,-2.248,3121
6.324,-2.180,3121
6.328,-1.945,3107
6.332,-1.535,3107
6.336,-1.042,3107
6.340,-0.510,3107
6.344,0.052,3107
6.348,0.595,3107
6.352,1.070,3107
6.356,1.387,3107
6.360,1.512,3107
6.364,1.462,3107
6.368,1.212,3104
6.372,0.812,3104
6.376,0.312,3104
6.380,-0.205,3104
6.384,-0.767,3104
6.388,-1.327,3104
6.392,-1.802,3104
6.396,-2.103,3104
6.400,-2.152,3104
6.404,-1.940,3118
6.408,-1.542,3118
6.412,-1.052,3118
6.416,-0.512,3118
6.420,0.050,3118
6.424,0.598,3118
6.428,1.067,3118
6.432,1.390,3118
6.436,1.512,3118
6.440,1.460,3118
6.444,1.192,3105
6.448,0.782,3105
6.452,0.292,3105
6.456,-0.247,3105
6.460,-0.812,3105
6.464,-1.377,3105
6.468,-1.847,3105
6.472,-2.147,3105
6.476,-2.263,3105
6.480,-1.897,3090
6.484,-1.042,3090
6.488,-0.522,3090
6.492,0.050,3090
6.496,0.588,3090
6.500,1.062,3090
6.504,1.377,3090
6.508,1.498,3090
6.512,1.433,3090
6.516,1.180,3121
6.520,0.767,3121
6.524,0.270,3121
6.528,-0.260,3121
6.532,-0.820,3121
6.536,-1.373,3121
6.540,-1.843,3121
6.544,-2.143,3121
6.548,-2.263,3121
6.552,-2.192,3121
6.556,-1.950,3134
6.560,-0.963,3134
6.564,-0.420,3134
6.568,0.062,3134
6.572,0.593,3134
6.576,1.070,3134
6.580,1.387,3134
6.584,1.515,3134
6.588,1.460,3134
6.592,1.195,3126
6.596,0.777,3126
6.600,0.287,3126
6.604,-0.233,3126
6.608,-0.802,3126
6.612,-1.353,3126
6.616,-1.820,3126
6.620,-2.127,3126
6.624,-2.252,3126
6.628,-2.188,3126
6.632,-1.948,3099
6.636,-1.542,3099
6.640,-0.440,3099
6.644,0.052,3099
6.648,0.573,3099
6.652,1.087,3099
6.656,1.375,3099
6.660,1.508,3099
6.664,1.452,3099
6.668,1.198,3131
6.672,0.785,3131
6.676,0.287,3131
6.680,-0.233,3131
6.684,-0.807,3131
6.688,-1.355,3131
6.692,-1.830,3131
6.696,-2.130,3131
6.700,-2.243,3131
6.704,-2.167,3131
6.708,-1.907,3144
6.712,-1.502,3144
6.716,-0.993,3144
6.720,0.185,3144
6.724,0.635,3144
6.728,1.107,3144
6.732,1.420,3144
6.736,1.538,3144
6.740,1.462,3144
6.744,1.192,3139
6.748,0.772,3139
6.752,0.280,3139
6.756,-0.258,3139
6.760,-0.833,3139
6.764,-1.403,3139
6.768,-1.873,3139
6.772,-2.180,3139
6.776,-2.303,3139
6.780,-2.248,3139
6.784,-1.988,3144
6.788,-1.573,3144
6.792,-1.073,3144
6.796,-0.542,3144
6.800,0.660,3144
6.804,1.077,3144
6.808,1.383,3144
6.812,1.510,3144
6.816,1.462,3144
6.820,1.205,3134
6.824,0.777,3134
6.828,0.292,3134
6.832,-0.233,3134
6.836,-0.800,3134
6.840,-1.363,3134
6.844,-1.827,3134
6.848,-2.127,3134
6.852,-2.252,3134
6.856,-2.183,3134
6.860,-1.938,3123
6.864,-1.528,3123
6.868,-1.018,3123
6.872,-0.485,3123
6.876,0.092,3123
6.880,1.167,3123
6.884,1.538,3123
6.888,1.472,3123
6.892,1.210,3133
6.896,0.777,3133
6.900,0.273,3133
6.904,-0.253,3133
6.908,-0.823,3133
6.912,-1.377,3133
6.916,-1.853,3133
6.920,-2.150,3133
6.924,-2.272,3133
6.928,-2.208,3133
6.932,-1.962,3136
6.936,-1.565,3136
6.940,-1.058,3136
6.944,-0.535,3136
6.948,0.037,3136
6.952,0.588,3136
6.956,1.058,3136
6.960,1.492,3136
6.964,1.425,3136
6.968,1.177,3087
6.972,0.757,3087
6.976,0.278,3087
6.980,-0.247,3087
6.984,-0.807,3087
6.988,-1.353,3087
6.992,-1.823,3087
6.996,-2.123,3087
7.000,-2.248,3087
7.004,-2.180,3087
7.008,-1.933,3132
7.012,-1.522,3132
7.016,-1.028,3132
7.020,-0.500,3132
7.024,0.138,3132
7.028,0.625,3132
7.032,1.087,3132
7.036,1.393,3132
7.040,1.415,3132
7.044,1.190,3106
7.048,0.117,3106
7.052,-0.268,3106
7.056,-0.833,3106
7.060,-1.387,3106
7.064,-1.850,3106
7.068,-2.152,3106
7.072,-2.283,3106
7.076,-2.208,3106
7.080,-1.958,3132
7.084,-1.542,3132
7.088,-1.052,3132
7.092,-0.507,3132
7.096,0.068,3132
7.100,0.623,3132
7.104,1.097,3132
7.108,1.417,3132
7.112,1.538,3132
7.116,1.475,3132
7.120,0.718,3116
7.124,-0.263,3116
7.128,-0.807,3116
7.132,-1.353,3116
7.136,-1.823,3116
7.140,-2.130,3116
7.144,-2.255,3116
7.148,-2.183,3116
7.152,-1.942,3116
7.156,-1.535,3111
7.160,-1.028,3111
7.164,-0.502,3111
7.168,0.065,3111
7.172,0.615,3111
7.176,1.075,3111
7.180,1.387,3111
7.184,1.508,3111
7.188,1.458,3111
7.192,1.198,3111
7.196,0.787,3127
7.200,-0.333,3127
7.204,-0.787,3127
7.208,-1.345,3127
7.212,-1.817,3127
7.216,-2.123,3127
7.220,-2.240,3127
7.224,-2.167,3127
7.228,-1.933,3127
7.232,-1.532,3109
7.236,-1.018,3109
7.240,-0.505,3109
7.244,0.052,3109
7.248,0.593,3109
7.252,1.062,3109
7.256,1.373,3109
7.260,1.492,3109
7.264,1.427,3109
7.268,1.170,3109
7.272,0.755,3097
7.276,0.258,3097
7.280,-0.910,3097
7.284,-1.373,3097
7.288,-1.823,3097
7.292,-2.112,3097
7.296,-2.217,3097
7.300,-2.150,3097
7.304,-1.897,3097
7.308,-1.492,3113
7.312,-0.980,3113
7.316,-0.460,3113
7.320,0.092,3113
7.324,0.630,3113
7.328,1.093,3113
7.332,1.397,3113
7.336,1.518,3113
7.340,1.458,3113
7.344,1.188,3113
7.348,0.780,3109
7.352,0.273,3109
7.356,-0.250,3109
7.360,-1.472,3109
7.364,-1.933,3109
7.368,-2.152,3109
7.372,-2.265,3109
7.376,-2.190,3109
7.380,-1.942,3109
7.384,-1.532,3108
7.388,-1.020,3108
7.392,-0.505,3108
7.396,0.058,3108
7.400,0.605,3108
7.404,1.062,3108
7.408,1.380,3108
7.412,1.488,3108
7.416,1.417,3108
7.420,1.153,3108
7.424,0.738,3128
7.428,0.233,3128
7.432,-0.302,3128
7.436,-0.850,3128
7.440,-1.933,3128
7.444,-2.170,3128
7.448,-2.280,3128
7.452,-2.208,3128
7.456,-1.948,3128
7.460,-1.540,3126
7.464,-1.022,3126
7.468,-0.497,3126
7.472,0.068,3126
7.476,0.610,3126
7.480,1.073,3126
7.484,1.377,3126
7.488,1.498,3126
7.492,1.427,3126
7.496,1.167,3126
7.500,0.757,3118
7.504,0.260,3118
7.508,-0.263,3118
7.512,-0.830,3118
7.516,-1.390,3118
7.520,-2.172,3118
7.524,-2.257,3118
7.528,-2.183,3118
7.532,-1.938,3118
7.536,-1.528,3121
7.540,-1.012,3121
7.544,-0.497,3121
7.548,0.075,3121
7.552,0.623,3121
7.556,1.087,3121
7.560,1.393,3121
7.564,1.502,3121
7.568,1.427,3121
7.572,1.170,3121
7.576,0.752,3115
7.580,0.237,3115
7.584,-0.292,3115
7.588,-0.863,3115
7.592,-1.420,3115
7.596,-1.887,3115
7.600,-2.292,3115
7.604,-2.217,3115
7.608,-1.968,3115
7.612,-1.552,3123
7.616,-1.032,3123
7.620,-0.512,3123
7.624,0.060,3123
7.628,0.610,3123
7.632,1.067,3123
7.636,1.377,3123
7.640,1.502,3123
7.644,1.433,3123
7.648,1.173,3123
7.652,0.770,3126
7.656,0.260,3126
7.660,-0.263,3126
7.664,-0.823,3126
7.668,-1.380,3126
7.672,-1.823,3126
7.676,-2.123,3126
7.680,-2.127,3126
7.684,-1.470,3126
7.688,-0.988,3126
7.692,-0.463,3126
7.696,0.087,3126
7.700,0.618,3126
7.704,1.087,3126
7.708,1.387,3126
7.712,1.500,3126
7.716,1.425,3126
7.720,1.170,3126
7.724,0.748,3116
7.728,0.237,3116
7.732,-0.290,3116
7.736,-0.858,3116
7.740,-1.405,3116
7.744,-1.860,3116
7.748,-2.143,3116
7.752,-2.252,3116
7.756,-2.178,3116
7.760,-1.425,3126
7.764,-0.460,3126
7.768,0.092,3126
7.772,0.627,3126
7.776,1.097,3126
7.780,1.393,3126
7.784,1.502,3126
7.788,1.420,3126
7.792,1.173,3126
7.796,0.748,3134
7.800,0.250,3134
7.804,-0.282,3134
7.808,-0.843,3134
7.812,-1.613,3134
7.816,-2.152,3134
7.820,-2.272,3134
7.824,-2.208,3134
7.828,-1.968,3134
7.832,-1.555,3136
7.836,-1.050,3136
7.840,0.133,3136
7.844,0.590,3136
7.848,1.058,3136
7.852,1.357,3136
7.856,1.498,3136
7.860,1.433,3136
7.864,1.177,3136
7.868,0.775,3130
7.872,0.263,3130
7.876,-0.258,3130
7.880,-0.818,3130
7.884,-1.373,3130
7.888,-1.823,3130
7.892,-2.112,3130
7.896,-2.223,3130
7.900,-2.152,3130
7.904,-1.893,3130
7.908,-1.492,3113
7.912,-0.983,3113
7.916,-0.460,3113
7.920,0.720,3113
7.924,1.103,3113
7.928,1.410,3113
7.932,1.532,3113
7.936,1.470,3113
7.940,1.202,3113
7.944,0.785,3139
7.948,0.268,3139
7.952,-0.253,3139
7.956,-0.830,3139
7.960,-1.393,3139
7.964,-1.857,3139
7.968,-2.147,3139
7.972,-2.260,3139
7.976,-2.180,3139
7.980,-1.907,3139
7.984,-1.498,3088
7.988,-0.983,3088
7.992,-0.453,3088
7.996,0.107,3088
8.000,1.192,3088
8.004,1.430,3088
8.008,1.548,3088
8.012,1.475,3088
8.016,1.205,3088
8.020,0.787,3102
8.024,0.278,3102
8.028,-0.242,3102
8.032,-0.802,3102
8.036,-1.367,3102
8.040,-1.830,3102
8.044,-2.127,3102
8.048,-2.248,3102
8.052,-2.170,3102
8.056,-1.907,3102
8.060,-1.505,3129
8.064,-1.000,3129
8.068,-0.482,3129
8.072,0.090,3129
8.076,0.632,3129
8.080,1.423,3129
8.084,1.508,3129
8.088,1.433,3129
8.092,1.175,3129
8.096,0.767,3133
8.100,0.250,3133
8.104,-0.273,3133
8.108,-0.843,3133
8.112,-1.403,3133
8.116,-1.867,3133
8.120,-2.160,3133
8.124,-2.272,3133
8.128,-2.195,3133
8.132,-1.942,3133
8.136,-1.532,3108
8.140,-1.022,3108
8.144,-0.502,3108
8.148,0.062,3108
8.152,0.613,3108
8.156,1.073,3108
8.160,1.498,3108
8.164,1.417,3108
8.168,1.150,3108
8.172,0.740,3097
8.176,0.198,3097
8.180,-0.297,3097
8.184,-0.873,3097
8.188,-1.423,3097
8.192,-1.883,3097
8.196,-2.172,3097
8.200,-2.260,3097
8.204,-2.185,3097
8.208,-1.910,3097
8.212,-1.512,3097
8.216,-1.008,3085
8.220,-0.468,3085
8.224,0.077,3085
8.228,0.627,3085
8.232,1.093,3085
8.236,1.397,3085
8.240,1.397,3085
8.244,1.177,3085
8.248,0.767,3085
8.252,0.223,3122
8.256,-0.882,3122
8.260,-1.387,3122
8.264,-1.923,3122
8.268,-2.150,3122
8.272,-2.263,3122
8.276,-2.188,3122
8.280,-1.933,3122
8.284,-1.528,3122
8.288,-1.020,3094
8.292,-0.465,3094
8.296,0.080,3094
8.300,0.623,3094
8.304,1.097,3094
8.308,1.390,3094
8.312,1.502,3094
8.316,1.433,3094
8.320,0.690,3101
8.324,-0.285,3101
8.328,-0.855,3101
8.332,-1.407,3101
8.336,-1.863,3101
8.340,-2.150,3101
8.344,-2.268,3101
8.348,-2.203,3101
8.352,-1.948,3101
8.356,-1.535,3101
8.360,-1.022,3105
8.364,-0.487,3105
8.368,0.075,3105
8.372,0.632,3105
8.376,1.097,3105
8.380,1.407,3105
8.384,1.515,3105
8.388,1.433,3105
8.392,1.177,3105
8.396,0.755,3105
8.400,-0.372,3109
8.404,-1.390,3109
8.408,-1.847,3109
8.412,-2.135,3109
8.416,-2.248,3109
8.420,-2.172,3109
8.424,-1.903,3109
8.428,-1.502,3109
8.432,-1.005,3117
8.436,-0.460,3117
8.440,0.092,3117
8.444,0.623,3117
8.448,1.077,3117
8.452,1.383,3117
8.456,1.488,3117
8.460,1.413,3117
8.464,1.155,3117
8.468,0.743,3117
8.472,0.250,3117
8.476,-0.287,3117
8.480,-1.498,3117
8.484,-1.865,3117
8.488,-2.152,3117
8.492,-2.257,3117
8.496,-2.180,3117
8.500,-1.925,3117
8.504,-1.508,3117
8.508,-1.008,3121
8.512,-0.465,3121
8.516,0.092,3121
8.520,0.637,3121
8.524,1.103,3121
8.528,1.397,3121
8.532,1.512,3121
8.536,1.423,3121
8.540,1.153,3121
8.544,0.738,3121
8.548,0.233,3112
8.552,-0.302,3112
8.556,-0.902,3112
8.560,-1.927,3112
8.564,-2.145,3112
8.568,-2.257,3112
8.572,-2.172,3112
8.576,-1.903,3112
8.580,-1.498,3112
8.584,-0.993,3122
8.588,-0.445,3122
8.592,0.098,3122
8.596,0.637,3122
8.600,1.100,3122
8.604,1.397,3122
8.608,1.508,3122
8.612,1.427,3122
8.616,1.153,3122
8.620,0.743,3122
8.624,0.237,3131
8.628,-0.292,3131
8.632,-0.858,3131
8.636,-1.413,3131
8.640,-2.192,3131
8.644,-2.285,3131
8.648,-2.165,3131
8.652,-1.935,3131
8.656,-1.530,3131
8.660,-1.020,3101
8.664,-0.487,3101
8.668,0.072,3101
8.672,0.613,3101
8.676,1.110,3101
8.680,1.393,3101
8.684,1.492,3101
8.688,1.397,3101
8.692,1.145,3101
8.696,0.708,3101
8.700,0.215,3138
8.704,-0.912,3138
8.708,-1.420,3138
8.712,-1.897,3138
8.716,-2.172,3138
8.720,-2.143,3138
8.724,-1.927,3138
8.728,-1.508,3138
8.732,-1.002,3119
8.736,-0.455,3119
8.740,0.102,3119
8.744,0.657,3119
8.748,1.105,3119
8.752,1.407,3119
8.756,1.530,3119
8.760,1.452,3119
8.764,1.185,3119
8.768,0.750,3119
8.772,0.207,3134
8.776,-0.302,3134
8.780,-0.863,3134
8.784,-1.420,3134
8.788,-1.875,3134
8.792,-2.167,3134
8.796,-2.272,3134
8.800,-1.847,3134
8.804,-0.980,3144
8.808,0.150,3144
8.812,0.630,3144
8.816,1.090,3144
8.820,1.380,3144
8.824,1.498,3144
8.828,1.417,3144
8.832,1.143,3144
8.836,0.738,3144
8.840,0.233,3143
8.844,-0.297,3143
8.848,-0.853,3143
8.852,-1.413,3143
8.856,-1.865,3143
8.860,-2.163,3143
8.864,-2.265,3143
8.868,-2.180,3143
8.872,-1.923,3143
8.876,-1.502,3143
8.880,-0.367,3132
8.884,0.698,3132
8.888,1.113,3132
8.892,1.390,3132
8.896,1.492,3132
8.900,1.410,3132
8.904,1.145,3132
8.908,0.743,3132
8.912,0.247,3133
8.916,-0.300,3133
8.920,-0.860,3133
8.924,-1.407,3133
8.928,-1.905,3133
8.932,-2.143,3133
8.936,-2.248,3133
8.940,-2.167,3133
8.944,-1.893,3133
8.948,-1.472,3133
8.952,-0.963,3120
8.956,-0.422,3120
8.960,0.748,3120
8.964,1.117,3120
8.968,1.413,3120
8.972,1.518,3120
8.976,1.433,3120
8.980,1.157,3120
8.984,0.743,3120
8.988,0.230,3115
8.992,-0.328,3115
8.996,-0.868,3115
9.000,-1.417,3115
9.004,-1.867,3115
9.008,-2.150,3115
9.012,-2.252,3115
9.016,-2.167,3115
9.020,-1.903,3115
9.024,-1.488,3115
9.028,-0.980,3133
9.032,-0.443,3133
9.036,0.110,3133
9.040,1.183,3133
9.044,1.417,3133
9.048,1.515,3133
9.052,1.433,3133
9.056,1.153,3133
9.060,0.738,3133
9.064,0.225,3111
9.068,-0.340,3111
9.072,-0.892,3111
9.076,-1.448,3111
9.080,-1.897,3111
9.084,-2.180,3111
9.088,-2.272,3111
9.092,-2.178,3111
9.096,-1.903,3111
9.100,-1.485,3111
9.104,-0.975,3131
9.108,-0.427,3131
9.112,0.128,3131
9.116,0.662,3131
9.120,1.478,3131
9.124,1.532,3131
9.128,1.452,3131
9.132,1.175,3131
9.136,0.752,3131
9.140,0.247,3116
9.144,-0.302,3116
9.148,-0.887,3116
9.152,-1.427,3116
9.156,-1.887,3116
9.160,-2.172,3116
9.164,-2.268,3116
9.168,-2.178,3116
9.172,-1.905,3116
9.176,-1.488,3116
9.180,-0.973,3126
9.184,-0.450,3126
9.188,0.115,3126
9.192,0.667,3126
9.196,1.117,3126
9.200,1.528,3126
9.204,1.438,3126
9.208,1.173,3126
9.212,0.757,3126
9.216,0.260,3126
9.220,-0.275,3105
9.224,-0.858,3105
9.228,-1.410,3105
9.232,-1.873,3105
9.236,-2.165,3105
9.240,-2.270,3105
9.244,-2.190,3105
9.248,-1.940,3105
9.252,-1.512,3105
9.256,-1.005,3105
9.260,-0.460,3121
9.264,0.110,3121
9.268,0.655,3121
9.272,1.103,3121
9.276,1.397,3121
9.280,1.397,3121
9.284,1.077,3121
9.288,0.718,3121
9.292,0.223,3121
9.296,-0.323,3115
9.300,-0.892,3115
9.304,-1.442,3115
9.308,-1.887,3115
9.312,-2.167,3115
9.316,-2.272,3115
9.320,-2.172,3115
9.324,-1.907,3115
9.328,-1.498,3115
9.332,-0.993,3115
9.336,-0.453,3103
9.340,0.117,3103
9.344,0.690,3103
9.348,1.135,3103
9.352,1.423,3103
9.356,1.522,3103
9.360,1.097,3103
9.364,0.738,3103
9.368,0.230,3103
9.372,-0.297,3115
9.376,-0.873,3115
9.380,-1.417,3115
9.384,-1.867,3115
9.388,-2.140,3115
9.392,-2.245,3115
9.396,-2.147,3115
9.400,-1.885,3115
9.404,-1.470,3115
9.408,-0.973,3115
9.412,-0.435,3114
9.416,0.128,3114
9.420,0.667,3114
9.424,1.107,3114
9.428,1.397,3114
9.432,1.512,3114
9.436,1.423,3114
9.440,0.662,3114
9.444,0.233,3114
9.448,-0.300,3110
9.452,-0.880,3110
9.456,-1.417,3110
9.460,-1.875,3110
9.464,-2.152,3110
9.468,-2.263,3110
9.472,-2.175,3110
9.476,-1.903,3110
9.480,-1.498,3110
9.484,-0.988,3110
9.488,-0.448,3113
9.492,0.133,3113
9.496,0.667,3113
9.500,1.117,3113
9.504,1.417,3113
9.508,1.525,3113
9.512,1.438,3113
9.516,1.170,3113
9.520,0.133,3123
9.524,-0.945,3123
9.528,-1.452,3123
9.532,-1.887,3123
9.536,-2.167,3123
9.540,-2.263,3123
9.544,-2.180,3123
9.548,-1.907,3123
9.552,-1.498,3123
9.556,-0.980,3123
9.560,-0.448,3150
9.564,0.133,3150
9.568,0.677,3150
9.572,1.135,3150
9.576,1.427,3150
9.580,1.532,3150
9.584,1.433,3150
9.588,1.150,3150
9.592,0.728,3150
9.596,0.212,3150
9.600,-1.002,3121
9.604,-1.925,3121
9.608,-2.188,3121
9.612,-2.288,3121
9.616,-2.192,3121
9.620,-1.933,3121
9.624,-1.508,3121
9.628,-0.988,3121
9.632,-0.448,3126
9.636,0.128,3126
9.640,0.667,3126
9.644,1.107,3126
9.648,1.393,3126
9.652,1.498,3126
9.656,1.397,3126
9.660,1.115,3126
9.664,0.708,3126
9.668,0.195,3126
9.672,-0.343,3127
9.676,-0.907,3127
9.680,-1.962,3127
9.684,-2.183,3127
9.688,-2.252,3127
9.692,-2.152,3127
9.696,-1.887,3127
9.700,-1.452,3127
9.704,-0.943,3127
9.708,-0.422,3127
9.712,0.147,3127
9.716,0.698,3127
9.720,1.137,3127
9.724,1.427,3127
9.728,1.528,3127
9.732,1.433,3127
9.736,1.157,3127
9.740,0.733,3127
9.744,0.217,3127
9.748,-0.328,3122
9.752,-0.902,3122
9.756,-1.462,3122
9.760,-2.192,3122
9.764,-2.263,3122
9.768,-2.180,3122
9.772,-1.903,3122
9.776,-1.490,3122
9.780,-0.980,3122
9.784,-0.443,3137
9.788,0.142,3137
9.792,0.672,3137
9.796,1.113,3137
9.800,1.395,3137
9.804,1.492,3137
9.808,1.397,3137
9.812,1.113,3137
9.816,0.698,3137
9.820,0.193,3137
9.824,-0.343,3089
9.828,-0.927,3089
9.832,-1.468,3089
9.836,-1.925,3089
9.840,-2.285,3089
9.844,-2.183,3089
9.848,-1.905,3089
9.852,-1.485,3089
9.856,-0.963,3089
9.860,-0.417,3126
9.864,0.152,3126
9.868,0.700,3126
9.872,1.143,3126
9.876,1.423,3126
9.880,1.525,3126
9.884,1.433,3126
9.888,1.167,3126
9.892,0.740,3126
9.896,0.225,3126
9.900,-0.302,3143
9.904,-0.887,3143
9.908,-1.442,3143
9.912,-1.893,3143
9.916,-2.165,3143
9.920,-2.147,3143
9.924,-1.877,3143
9.928,-1.498,3143
9.932,-0.980,3143
9.936,-0.432,3126
9.940,0.138,3126
9.944,0.685,3126
9.948,1.137,3126
9.952,1.417,3126
9.956,1.528,3126
9.960,1.433,3126
9.964,1.147,3126
9.968,0.718,3126
9.972,0.215,3126
9.976,-0.338,3131
9.980,-0.927,3131
9.984,-1.482,3131
9.988,-1.923,3131
9.992,-2.188,3131
9.996,-2.283,3131
10.000,-1.850,3131
10.004,-1.415,3131
10.008,-0.973,3131
10.012,-0.412,3133
10.016,0.130,3133
10.020,0.657,3133
10.024,1.103,3133
10.028,1.390,3133
10.032,1.488,3133
10.036,1.397,3133
10.040,1.113,3133
10.044,0.698,3133
10.048,0.188,3133
10.052,-0.362,3138
10.056,-0.938,3138
10.060,-1.492,3138
10.064,-1.938,3138
10.068,-2.210,3138
10.072,-2.300,3138
10.076,-2.210,3138
10.080,-1.415,3138
10.084,-0.968,3138
10.088,-0.427,3115
10.092,0.177,3115
10.096,0.698,3115
10.100,1.147,3115
10.104,1.427,3115
10.108,1.532,3115
10.112,1.430,3115
10.116,1.140,3115
10.120,0.713,3115
10.124,0.217,3115
10.128,-0.333,3122
10.132,-0.912,3122
10.136,-1.460,3122
10.140,-1.903,3122
10.144,-2.178,3122
10.148,-2.272,3122
10.152,-2.188,3122
10.156,-1.927,3122
10.160,-0.885,3122
10.164,-0.432,3126
10.168,0.138,3126
10.172,0.688,3126
10.176,1.140,3126
10.180,1.423,3126
10.184,1.528,3126
10.188,1.452,3126
10.192,1.163,3126
10.196,0.733,3126
10.200,0.228,3126
10.204,-0.300,3112
10.208,-0.890,3112
10.212,-1.442,3112
10.216,-1.883,3112
10.220,-2.160,3112
10.224,-2.255,3112
10.228,-2.163,3112
10.232,-1.883,3112
10.236,-1.465,3112
10.240,-0.323,3110
10.244,0.733,3110
10.248,1.150,3110
10.252,1.427,3110
10.256,1.515,3110
10.260,1.417,3110
10.264,1.133,3110
10.268,0.693,3110
10.272,0.177,3110
10.276,-0.367,3110
10.280,-0.948,3097
10.284,-1.512,3097
10.288,-1.962,3097
10.292,-2.217,3097
10.296,-2.303,3097
10.300,-2.205,3097
10.304,-1.930,3097
10.308,-1.495,3097
10.312,-0.975,3097
10.316,-0.435,3097
10.320,0.757,3113
10.324,1.417,3113
10.328,1.510,3113
10.332,1.413,3113
10.336,1.113,3113
10.340,0.695,3113
10.344,0.188,3113
10.348,-0.350,3113
10.352,-0.922,3116
10.356,-1.472,3116
10.360,-1.927,3116
10.364,-2.183,3116
10.368,-2.270,3116
10.372,-2.172,3116
10.376,-1.893,3116
10.380,-1.465,3116
10.384,-0.940,3116
10.388,-0.412,3116
10.392,0.155,3115
10.396,0.708,3115
10.400,1.458,3115
10.404,1.528,3115
10.408,1.427,3115
10.412,1.147,3115
10.416,0.720,3115
10.420,0.223,3115
10.424,-0.323,3115
10.428,-0.887,3107
10.432,-1.452,3107
10.436,-1.883,3107
10.440,-2.152,3107
10.444,-2.257,3107
10.448,-2.167,3107
10.452,-1.893,3107
10.456,-1.472,3107
10.460,-0.975,3107
10.464,-0.443,3107
10.468,0.117,3097
10.472,0.672,3097
10.476,1.133,3097
10.480,1.468,3097
10.484,1.367,3097
10.488,1.058,3097
10.492,0.627,3097
10.496,0.105,3097
10.500,-0.415,3097
10.504,-1.008,3104
10.508,-1.508,3104
10.512,-1.948,3104
10.516,-2.243,3104
10.520,-2.292,3104
10.524,-2.138,3104
10.528,-1.887,3104
10.532,-1.492,3104
10.536,-0.975,3104
10.540,-0.432,3104
10.544,0.130,3102
10.548,0.677,3102
10.552,1.117,3102
10.556,1.397,3102
10.560,1.373,3102
10.564,1.093,3102
10.568,0.688,3102
10.572,0.182,3102
10.576,-0.362,3102
10.580,-0.922,3118
10.584,-1.488,3118
10.588,-1.933,3118
10.592,-2.180,3118
10.596,-2.263,3118
10.600,-2.163,3118
10.604,-1.873,3118
10.608,-1.452,3118
10.612,-0.927,3118
10.616,-0.393,3118
10.620,0.155,3113
10.624,0.708,3113
10.628,1.155,3113
10.632,1.423,3113
10.636,1.515,3113
10.640,1.062,3113
10.644,0.698,3113
10.648,0.188,3113
10.652,-0.352,3113
10.656,-0.927,3123
10.660,-1.482,3123
10.664,-1.907,3123
10.668,-2.178,3123
10.672,-2.268,3123
10.676,-2.170,3123
10.680,-1.890,3123
10.684,-1.482,3123
10.688,-0.948,3123
10.692,-0.422,3123
10.696,0.140,3119
10.700,0.700,3119
10.704,1.135,3119
10.708,1.413,3119
10.712,1.502,3119
10.716,1.407,3119
10.720,0.552,3119
10.724,0.175,3119
10.728,-0.393,3119
10.732,-0.940,3137
10.736,-1.907,3137
10.740,-2.172,3137
10.744,-2.243,3137
10.748,-2.138,3137
10.752,-1.847,3137
10.756,-1.452,3137
10.760,-0.935,3137
10.764,-0.412,3137
10.768,0.147,3121
10.772,0.700,3121
10.776,1.137,3121
10.780,1.417,3121
10.784,1.508,3121
10.788,1.413,3121
10.792,1.137,3121
10.796,0.713,3121
10.800,-0.422,3121
10.804,-0.912,3142
10.808,-1.455,3142
10.812,-1.875,3142
10.816,-2.143,3142
10.820,-2.225,3142
10.824,-2.132,3142
10.828,-1.863,3142
10.832,-1.448,3142
10.836,-0.930,3142
10.840,-0.393,3142
10.844,0.168,3103
10.848,0.708,3103
10.852,1.150,3103
10.856,1.417,3103
10.860,1.508,3103
10.864,1.397,3103
10.868,1.133,3103
10.872,0.703,3103
10.876,0.203,3103
10.880,-1.183,3127
10.884,-1.940,3127
10.888,-2.167,3127
10.892,-2.263,3127
10.896,-2.163,3127
10.900,-1.887,3127
10.904,-1.470,3127
10.908,-0.948,3127
10.912,-0.422,3127
10.916,0.142,3127
10.920,0.698,3127
10.924,1.140,3127
10.928,1.423,3127
10.932,1.525,3127
10.936,1.427,3127
10.940,1.147,3127
10.944,0.715,3127
10.948,0.212,3127
10.952,-0.328,3127
10.956,-0.895,3130
10.960,-1.982,3130
10.964,-2.172,3130
10.968,-2.268,3130
10.972,-2.170,3130
10.976,-1.893,3130
10.980,-1.470,3130
10.984,-0.948,3130
10.988,-0.420,3130
10.992,0.140,3134
10.996,0.688,3134
11.000,1.113,3134
11.004,1.387,3134
11.008,1.488,3134
11.012,1.383,3134
11.016,1.097,3134
11.020,0.672,3134
11.024,0.168,3134
11.028,-0.372,3134
11.032,-0.940,3130
11.036,-1.508,3130
11.040,-2.223,3130
11.044,-2.292,3130
11.048,-2.183,3130
11.052,-1.897,3130
11.056,-1.468,3130
11.060,-0.963,3130
11.064,-0.420,3130
11.068,0.133,3144
11.072,0.688,3144
11.076,1.117,3144
11.080,1.393,3144
11.084,1.488,3144
11.088,1.478,3144
11.092,1.140,3144
11.096,0.718,3144
11.100,0.203,3144
11.104,-0.345,3144
11.108,-0.940,3143
11.112,-1.972,3143
11.116,-2.195,3143
11.120,-2.150,3143
11.124,-1.900,3143
11.128,-1.470,3143
11.132,-0.948,3143
11.136,-0.417,3143
11.140,0.150,3124
11.144,0.700,3124
11.148,1.140,3124
11.152,1.415,3124
11.156,1.508,3124
11.160,1.407,3124
11.164,1.117,3124
11.168,0.705,3124
11.172,0.207,3124
11.176,-0.333,3124
11.180,-0.892,3106
11.184,-1.462,3106
11.188,-1.887,3106
11.192,-2.150,3106
11.196,-2.245,3106
11.200,-1.802,3106
11.204,-1.442,3106
11.208,-0.915,3106
11.212,-0.388,3106
11.216,0.180,3117
11.220,0.718,3117
11.224,1.157,3117
11.228,1.438,3117
11.232,1.532,3117
11.236,1.425,3117
11.240,1.147,3117
11.244,0.695,3117
11.248,0.198,3117
11.252,-0.333,3117
11.256,-0.892,3081
11.260,-1.460,3081
11.264,-1.890,3081
11.268,-2.163,3081
11.272,-2.263,3081
11.276,-2.170,3081
11.280,-1.387,3081
11.284,-0.963,3081
11.288,-0.422,3081
11.292,0.138,3081
11.296,0.685,3130
11.300,1.135,3130
11.304,1.407,3130
11.308,1.498,3130
11.312,1.393,3130
11.316,1.107,3130
11.320,0.688,3130
11.324,0.185,3130
11.328,-0.352,3130
11.332,-0.917,3130
11.336,-1.472,3080
11.340,-1.927,3080
11.344,-2.172,3080
11.348,-2.260,3080
11.352,-2.160,3080
11.356,-1.870,3080
11.360,-0.843,3080
11.364,-0.360,3080
11.368,0.180,3080
11.372,0.718,3117
11.376,1.173,3117
11.380,1.427,3117
11.384,1.515,3117
11.388,1.417,3117
11.392,1.140,3117
11.396,0.703,3117
11.400,0.193,3117
11.404,-0.343,3117
11.408,-0.917,3117
11.412,-1.480,3103
11.416,-1.930,3103
11.420,-2.185,3103
11.424,-2.270,3103
11.428,-2.172,3103
11.432,-1.890,3103
11.436,-1.468,3103
11.440,-0.323,3103
11.444,0.152,3103
11.448,0.700,3114
11.452,1.153,3114
11.456,1.417,3114
11.460,1.510,3114
11.464,1.407,3114
11.468,1.113,3114
11.472,0.690,3114
11.476,0.185,3114
11.480,-0.367,3114
11.484,-0.927,3114
11.488,-1.482,3122
11.492,-1.930,3122
11.496,-2.172,3122
11.500,-2.250,3122
11.504,-2.140,3122
11.508,-1.855,3122
11.512,-1.423,3122
11.516,-0.907,3122
11.520,0.268,3116
11.524,1.170,3116
11.528,1.427,3116
11.532,1.510,3116
11.536,1.397,3116
11.540,1.103,3116
11.544,0.672,3116
11.548,0.152,3116
11.552,-0.388,3116
11.556,-0.963,3116
11.560,-1.502,3121
11.564,-1.942,3121
11.568,-2.203,3121
11.572,-2.290,3121
11.576,-2.185,3121
11.580,-1.903,3121
11.584,-1.470,3121
11.588,-0.948,3121
11.592,-0.412,3121
11.596,0.150,3121
11.600,1.208,3119
11.604,1.510,3119
11.608,1.397,3119
11.612,1.107,3119
11.616,0.688,3119
11.620,0.182,3119
11.624,-0.380,3119
11.628,-0.910,3119
11.632,-1.462,3118
11.636,-1.903,3118
11.640,-2.165,3118
11.644,-2.245,3118
11.648,-2.123,3118
11.652,-1.840,3118
11.656,-1.407,3118
11.660,-0.892,3118
11.664,-0.365,3118
11.668,0.198,3118
11.672,0.733,3111
11.676,1.173,3111
11.680,1.518,3111
11.684,1.397,3111
11.688,1.105,3111
11.692,0.672,3111
11.696,0.177,3111
11.700,-0.370,3111
11.704,-0.938,3111
11.708,-1.488,3109
11.712,-1.933,3109
11.716,-2.167,3109
11.720,-2.255,3109
11.724,-2.140,3109
11.728,-1.857,3109
11.732,-1.442,3109
11.736,-0.907,3109
11.740,-0.388,3109
11.744,0.182,3109
11.748,0.715,3137
11.752,1.165,3137
11.756,1.423,3137
11.760,1.367,3137
11.764,1.103,3137
11.768,0.675,3137
11.772,0.177,3137
11.776,-0.362,3137
11.780,-0.922,3137
11.784,-1.468,3124
11.788,-1.900,3124
11.792,-2.152,3124
11.796,-2.243,3124
11.800,-2.132,3124
11.804,-1.853,3124
11.808,-1.423,3124
11.812,-0.902,3124
11.816,-0.380,3124
11.820,0.188,3124
11.824,0.718,3116
11.828,1.163,3116
11.832,1.423,3116
11.836,1.505,3116
11.840,1.038,3116
11.844,0.662,3116
11.848,0.172,3116
11.852,-0.362,3116
11.856,-0.932,3116
11.860,-1.480,3141
11.864,-1.923,3141
11.868,-2.167,3141
11.872,-2.248,3141
11.876,-2.138,3141
11.880,-1.853,3141
11.884,-1.423,3141
11.888,-0.907,3141
11.892,-0.372,3141
11.896,0.190,3141
11.900,0.733,3137
11.904,1.177,3137
11.908,1.448,3137
11.912,1.530,3137
11.916,1.413,3137
11.920,0.593,3137
11.924,0.172,3137
11.928,-0.372,3137
11.932,-0.927,3137
11.936,-1.472,3135
11.940,-1.907,3135
11.944,-2.163,3135
11.948,-2.245,3135
11.952,-2.140,3135
11.956,-1.857,3135
11.960,-1.410,3135
11.964,-0.892,3135
11.968,-0.367,3135
11.972,0.205,3135
11.976,0.740,3140
11.980,1.188,3140
11.984,1.450,3140
11.988,1.535,3140
11.992,1.420,3140
11.996,1.113,3140
12.000,0.077,3140
12.004,-0.375,3140
12.008,-0.948,3140
12.012,-1.492,3114
12.016,-1.960,3114
12.020,-2.180,3114
12.024,-2.255,3114
12.028,-2.140,3114
12.032,-1.847,3114
12.036,-1.405,3114
12.040,-0.890,3114
12.044,-0.352,3114
12.048,0.212,3114
12.052,0.748,3119
12.056,1.180,3119
12.060,1.438,3119
12.064,1.512,3119
12.068,1.397,3119
12.072,1.097,3119
12.076,0.657,3119
12.080,-0.505,3119
12.084,-0.978,3119
12.088,-1.528,3109
12.092,-1.972,3109
12.096,-2.220,3109
12.100,-2.297,3109
12.104,-2.188,3109
12.108,-1.893,3109
12.112,-1.458,3109
12.116,-0.932,3109
12.120,-0.393,3109
12.124,0.177,3109
12.128,0.710,3129
12.132,1.155,3129
12.136,1.420,3129
12.140,1.508,3129
12.144,1.395,3129
12.148,1.103,3129
12.152,0.677,3129
12.156,0.177,3129
12.160,-1.028,3129
12.164,-1.502,3101
12.168,-1.938,3101
12.172,-2.183,3101
12.176,-2.260,3101
12.180,-2.147,3101
12.184,-1.860,3101
12.188,-1.442,3101
12.192,-0.912,3101
12.196,-0.390,3101
12.200,0.177,3101
12.204,0.708,3132
12.208,1.137,3132
12.212,1.397,3132
12.216,1.482,3132
12.220,1.373,3132
12.224,1.077,3132
12.228,0.657,3132
12.232,0.140,3132
12.236,-0.390,3132
12.240,-1.577,3135
12.244,-2.188,3135
12.248,-2.268,3135
12.252,-2.147,3135
12.256,-1.853,3135
12.260,-1.413,3135
12.264,-0.882,3135
12.268,-0.350,3135
12.272,0.223,3135
12.276,0.752,3128
12.280,1.190,3128
12.284,1.455,3128
12.288,1.532,3128
12.292,1.420,3128
12.296,1.117,3128
12.300,0.688,3128
12.304,0.172,3128
12.308,-0.378,3128
12.312,-0.940,3128
12.316,-1.498,3116
12.320,-2.195,3116
12.324,-2.257,3116
12.328,-2.145,3116
12.332,-1.853,3116
12.336,-1.417,3116
12.340,-0.897,3116
12.344,-0.362,3116
12.348,0.212,3116
12.352,0.752,3116
12.356,1.188,3109
12.360,1.460,3109
12.364,1.540,3109
12.368,1.420,3109
12.372,1.115,3109
12.376,0.677,3109
12.380,0.158,3109
12.384,-0.390,3109
12.388,-0.973,3109
12.392,-1.512,3109
12.396,-1.952,3127
12.400,-2.285,3127
12.404,-2.178,3127
12.408,-1.887,3127
12.412,-1.455,3127
12.416,-0.932,3127
12.420,-0.403,3127
12.424,0.180,3127
12.428,0.713,3127
12.432,1.153,3123
12.436,1.417,3123
12.440,1.500,3123
12.444,1.387,3123
12.448,1.087,3123
12.452,0.652,3123
12.456,0.138,3123
12.460,-0.393,3123
12.464,-0.968,3123
12.468,-1.510,3123
12.472,-1.952,3123
12.476,-2.203,3123
12.480,-2.123,3123
12.484,-1.863,3123
12.488,-1.415,3123
12.492,-0.900,3123
12.496,-0.362,3123
12.500,0.207,3123
12.504,0.745,3123
12.508,1.180,3121
12.512,1.438,3121
12.516,1.508,3121
12.520,1.393,3121
12.524,1.095,3121
12.528,0.662,3121
12.532,0.147,3121
12.536,-0.383,3121
12.540,-0.943,3121
12.544,-1.502,3121
12.548,-1.942,3101
12.552,-2.192,3101
12.556,-2.272,3101
12.560,-1.833,3101
12.564,-1.420,3101
12.568,-0.922,3101
12.572,-0.383,3101
12.576,0.188,3101
12.580,0.718,3101
12.584,1.157,3114
12.588,1.427,3114
12.592,1.510,3114
12.596,1.395,3114
12.600,1.097,3114
12.604,0.667,3114
12.608,0.155,3114
12.612,-0.378,3114
12.616,-0.938,3114
12.620,-1.488,3114
12.624,-1.925,3107
12.628,-2.172,3107
12.632,-2.255,3107
12.636,-2.140,3107
12.640,-1.343,3107
12.644,-0.912,3107
12.648,-0.383,3107
12.652,0.188,3107
12.656,0.718,3107
12.660,1.150,3111
12.664,1.417,3111
12.668,1.500,3111
12.672,1.387,3111
12.676,1.093,3111
12.680,0.662,3111
12.684,0.152,3111
12.688,-0.385,3111
12.692,-0.943,3111
12.696,-1.498,3111
12.700,-1.933,3118
12.704,-2.183,3118
12.708,-2.263,3118
12.712,-2.143,3118
12.716,-1.863,3118
12.720,-0.848,3118
12.724,-0.407,3118
12.728,0.158,3118
12.732,0.698,3118
12.736,1.117,3105
12.740,1.393,3105
12.744,1.470,3105
12.748,1.370,3105
12.752,1.065,3105
12.756,0.637,3105
12.760,0.138,3105
12.764,-0.393,3105
12.768,-0.963,3105
12.772,-1.498,3105
12.776,-1.938,3119
12.780,-2.183,3119
12.784,-2.257,3119
12.788,-2.143,3119
12.792,-1.817,3119
12.796,-1.393,3119
12.800,-0.290,3119
12.804,0.223,3119
12.808,0.738,3119
12.812,1.157,3137
12.816,1.498,3137
12.820,1.383,3137
12.824,1.077,3137
12.828,0.657,3137
12.832,0.145,3137
12.836,-0.378,3137
12.840,-0.963,3137
12.844,-1.498,3137
12.848,-1.907,3124
12.852,-2.178,3124
12.856,-2.255,3124
12.860,-2.145,3124
12.864,-1.857,3124
12.868,-1.417,3124
12.872,-0.897,3124
12.876,-0.362,3124
12.880,0.823,3124
12.884,1.173,3131
12.888,1.427,3131
12.892,1.508,3131
12.896,1.393,3131
12.900,1.093,3131
12.904,0.660,3131
12.908,0.142,3131
12.912,-0.388,3131
12.916,-0.968,3131
12.920,-1.522,3131
12.924,-1.950,3109
12.928,-2.208,3109
12.932,-2.280,3109
12.936,-2.167,3109
12.940,-1.867,3109
12.944,-1.427,3109
12.948,-0.905,3109
12.952,-0.367,3109
12.956,0.207,3109
12.960,1.222,3137
12.964,1.492,3137
12.968,1.357,3137
12.972,1.062,3137
12.976,0.630,3137
12.980,0.133,3137
12.984,-0.398,3137
12.988,-0.968,3137
12.992,-1.500,3137
12.996,-1.933,3121
13.000,-2.172,3121
13.004,-2.248,3121
13.008,-2.132,3121
13.012,-1.850,3121
13.016,-1.413,3121
13.020,-0.892,3121
13.024,-0.362,3121
13.028,0.212,3121
13.032,0.752,3121
13.036,1.188,3141
13.040,1.528,3141
13.044,1.327,3141
13.048,1.067,3141
13.052,0.660,3141
13.056,0.142,3141
13.060,-0.393,3141
13.064,-0.968,3141
13.068,-1.502,3141
13.072,-1.923,3139
13.076,-2.183,3139
13.080,-2.257,3139
13.084,-2.140,3139
13.088,-1.847,3139
13.092,-1.413,3139
13.096,-0.897,3139
13.100,-0.367,3139
13.104,0.203,3139
13.108,0.738,3139
13.112,1.177,3135
13.116,1.433,3135
13.120,1.357,3135
13.124,1.018,3135
13.128,0.632,3135
13.132,0.142,3135
13.136,-0.388,3135
13.140,-0.965,3135
13.144,-1.492,3135
13.148,-1.927,3127
13.152,-2.178,3127
13.156,-2.228,3127
13.160,-2.112,3127
13.164,-1.820,3127
13.168,-1.385,3127
13.172,-0.880,3127
13.176,-0.333,3127
13.180,0.215,3127
13.184,0.738,3127
13.188,1.167,3139
13.192,1.420,3139
13.196,1.498,3139
13.200,1.015,3139
13.204,0.632,3139
13.208,0.120,3139
13.212,-0.407,3139
13.216,-0.973,3139
13.220,-1.502,3139
13.224,-1.927,3113
13.228,-2.172,3113
13.232,-2.248,3113
13.236,-2.123,3113
13.240,-1.830,3113
13.244,-1.387,3113
13.248,-0.885,3113
13.252,-0.350,3113
13.256,0.210,3113
13.260,0.743,3113
13.264,1.173,3120
13.268,1.427,3120
13.272,1.500,3120
13.276,1.387,3120
13.280,0.547,3120
13.284,0.113,3120
13.288,-0.427,3120
13.292,-1.008,3120
13.296,-1.540,3120
13.300,-1.968,3131
13.304,-2.217,3131
13.308,-2.283,3131
13.312,-2.147,3131
13.316,-1.855,3131
13.320,-1.413,3131
13.324,-0.892,3131
13.328,-0.362,3131
13.332,0.212,3131
13.336,0.743,3131
13.340,1.170,3133
13.344,1.417,3133
13.348,1.478,3133
13.352,1.357,3133
13.356,1.050,3133
13.360,0.020,3133
13.364,-0.458,3133
13.368,-1.002,3133
13.372,-1.528,3133
13.376,-1.948,3121
13.380,-2.188,3121
13.384,-2.257,3121
13.388,-2.132,3121
13.392,-1.833,3121
13.396,-1.390,3121
13.400,-0.868,3121
13.404,-0.338,3121
13.408,0.233,3121
13.412,0.765,3121
13.416,1.195,3121
13.420,1.452,3095
13.424,1.518,3095
13.428,1.393,3095
13.432,1.087,3095
13.436,0.652,3095
13.440,-0.552,3095
13.444,-1.010,3095
13.448,-1.495,3095
13.452,-1.905,3095
13.456,-2.167,3102
13.460,-2.223,3102
13.464,-2.107,3102
13.468,-1.817,3102
13.472,-1.385,3102
13.476,-0.882,3102
13.480,-0.292,3102
13.484,0.217,3102
13.488,0.745,3102
13.492,1.167,3102
13.496,1.413,3113
13.500,1.488,3113
13.504,1.367,3113
13.508,1.060,3113
13.512,0.623,3113
13.516,0.117,3113
13.520,-1.075,3113
13.524,-1.627,3113
13.528,-1.982,3113
13.532,-2.205,3107
13.536,-2.272,3107
13.540,-2.150,3107
13.544,-1.857,3107
13.548,-1.417,3107
13.552,-0.900,3107
13.556,-0.365,3107
13.560,0.210,3107
13.564,0.775,3107
13.568,1.192,3107
13.572,1.460,3128
13.576,1.535,3128
13.580,1.410,3128
13.584,1.107,3128
13.588,0.637,3128
13.592,0.152,3128
13.596,-0.388,3128
13.600,-1.577,3128
13.604,-1.948,3128
13.608,-2.178,3123
13.612,-2.248,3123
13.616,-2.127,3123
13.620,-1.840,3123
13.624,-1.393,3123
13.628,-0.887,3123
13.632,-0.362,3123
13.636,0.207,3123
13.640,0.733,3123
13.644,1.163,3123
13.648,1.413,3120
13.652,1.488,3120
13.656,1.367,3120
13.660,1.060,3120
13.664,0.618,3120
13.668,0.113,3120
13.672,-0.422,3120
13.676,-0.988,3120
13.680,-2.002,3128
13.684,-2.250,3128
13.688,-2.112,3128
13.692,-1.817,3128
13.696,-1.377,3128
13.700,-0.858,3128
13.704,-0.328,3128
13.708,0.235,3128
13.712,0.770,3128
13.716,1.192,3128
13.720,1.452,3081
13.724,1.518,3081
13.728,1.393,3081
13.732,1.097,3081
13.736,0.662,3081
13.740,0.152,3081
13.744,-0.378,3081
13.748,-0.938,3081
13.752,-1.488,3081
13.756,-1.903,3081
13.760,-2.203,3125
13.764,-1.792,3125
13.768,-1.353,3125
13.772,-0.843,3125
13.776,-0.302,3125
13.780,0.265,3125
13.784,0.790,3125
13.788,1.222,3125
13.792,1.488,3127
13.796,1.558,3127
13.800,1.433,3127
13.804,1.133,3127
13.808,0.677,3127
13.812,0.158,3127
13.816,-0.380,3127
13.820,-0.943,3127
13.824,-1.488,3127
13.828,-1.923,3127
13.832,-2.163,3124
13.836,-2.230,3124
13.840,-1.762,3124
13.844,-1.353,3124
13.848,-0.868,3124
13.852,-0.335,3124
13.856,0.230,3124
13.860,0.757,3124
13.864,1.190,3124
13.868,1.458,3125
13.872,1.528,3125
13.876,1.397,3125
13.880,1.097,3125
13.884,0.667,3125
13.888,0.147,3125
13.892,-0.393,3125
13.896,-0.968,3125
13.900,-1.500,3125
13.904,-1.930,3125
13.908,-2.172,3069
13.912,-2.243,3069
13.916,-2.123,3069
13.920,-1.312,3069
13.924,-0.868,3069
13.928,-0.343,3069
13.932,0.223,3069
13.936,0.757,3069
13.940,1.192,3069
13.944,1.458,3141
13.948,1.518,3141
13.952,1.385,3141
13.956,1.087,3141
13.960,0.632,3141
13.964,0.133,3141
13.968,-0.407,3141
13.972,-1.002,3141
13.976,-1.522,3141
13.980,-1.948,3141
13.984,-2.190,3131
13.988,-2.260,3131
13.992,-2.135,3131
13.996,-1.830,3131
14.000,-0.780,3131
14.004,-0.292,3131
14.008,0.233,3131
14.012,0.770,3131
14.016,1.192,3131
14.020,1.460,3136
14.024,1.530,3136
14.028,1.407,3136
14.032,1.097,3136
14.036,0.662,3136
14.040,0.145,3136
14.044,-0.403,3136
14.048,-0.975,3136
14.052,-1.508,3136
14.056,-1.933,3136
14.060,-2.165,3137
14.064,-2.243,3137
14.068,-2.112,3137
14.072,-1.820,3137
14.076,-1.380,3137
14.080,-0.230,3137
14.084,0.228,3137
14.088,0.757,3137
14.092,1.183,3137
14.096,1.452,3139
14.100,1.510,3139
14.104,1.387,3139
14.108,1.087,3139
14.112,0.652,3139
14.116,0.140,3139
14.120,-0.390,3139
14.124,-0.968,3139
14.128,-1.502,3139
14.132,-1.933,3139
14.136,-2.172,3127
14.140,-2.248,3127
14.144,-2.132,3127
14.148,-1.827,3127
14.152,-1.380,3127
14.156,-0.868,3127
14.160,0.312,3127
14.164,0.780,3127
14.168,1.183,3127
14.172,1.433,3137
14.176,1.502,3137
14.180,1.380,3137
14.184,1.077,3137
14.188,0.627,3137
14.192,0.128,3137
14.196,-0.412,3137
14.200,-0.983,3137
14.204,-1.502,3137
14.208,-1.927,3137
14.212,-2.147,3131
14.216,-2.208,3131
14.220,-2.085,3131
14.224,-1.788,3131
14.228,-1.343,3131
14.232,-0.823,3131
14.236,-0.292,3131
14.240,0.870,3131
14.244,1.212,3131
14.248,1.465,3153
14.252,1.528,3153
14.256,1.397,3153
14.260,1.093,3153
14.264,0.637,3153
14.268,0.130,3153
14.272,-0.412,3153
14.276,-0.983,3153
14.280,-1.528,3153
14.284,-1.948,3153
14.288,-2.183,3122
14.292,-2.260,3122
14.296,-2.138,3122
14.300,-1.845,3122
14.304,-1.395,3122
14.308,-0.880,3122
14.312,-0.345,3122
14.316,0.230,3122
14.320,1.252,3122
14.324,1.462,3118
14.328,1.532,3118
14.332,1.407,3118
14.336,1.077,3118
14.340,0.660,3118
14.344,0.147,3118
14.348,-0.407,3118
14.352,-0.978,3118
14.356,-1.512,3118
14.360,-1.942,3118
14.364,-2.178,3136
14.368,-2.252,3136
14.372,-2.125,3136
14.376,-1.825,3136
14.380,-1.383,3136
14.384,-0.860,3136
14.388,-0.335,3136
14.392,0.228,3136
14.396,0.757,3136
14.400,1.475,3128
14.404,1.357,3128
14.408,1.060,3128
14.412,0.620,3128
14.416,0.113,3128
14.420,-0.427,3128
14.424,-0.993,3128
14.428,-1.535,3128
14.432,-1.952,3128
14.436,-2.188,3128
14.440,-2.260,3100
14.444,-2.132,3100
14.448,-1.833,3100
14.452,-1.387,3100
14.456,-0.868,3100
14.460,-0.330,3100
14.464,0.233,3100
14.468,0.770,3100
14.472,1.192,3100
14.476,1.458,3100
14.480,1.353,3119
14.484,0.618,3119
14.488,0.145,3119
14.492,-0.385,3119
14.496,-0.943,3119
14.500,-1.485,3119
14.504,-1.893,3119
14.508,-2.147,3119
14.512,-2.215,3133
14.516,-2.100,3133
14.520,-1.808,3133
14.524,-1.367,3133
14.528,-0.843,3133
14.532,-0.302,3133
14.536,0.263,3133
14.540,0.785,3133
14.544,1.220,3133
14.548,1.462,3133
14.552,1.540,3114
14.556,1.413,3114
14.560,0.593,3114
14.564,0.050,3114
14.568,-0.378,3114
14.572,-0.943,3114
14.576,-1.492,3114
14.580,-1.923,3114
14.584,-2.178,3114
14.588,-2.248,3107
14.592,-2.112,3107
14.596,-1.823,3107
14.600,-1.383,3107
14.604,-0.868,3107
14.608,-0.338,3107
14.612,0.237,3107
14.616,0.757,3107
14.620,1.190,3107
14.624,1.438,3107
14.628,1.502,3111
14.632,1.380,3111
14.636,1.077,3111
14.640,0.037,3111
14.644,-0.420,3111
14.648,-0.990,3111
14.652,-1.530,3111
14.656,-1.945,3111
14.660,-2.178,3111
14.664,-2.230,3117
14.668,-2.103,3117
14.672,-1.812,3117
14.676,-1.363,3117
14.680,-0.845,3117
14.684,-0.323,3117
14.688,0.247,3117
14.692,0.777,3117
14.696,1.212,3117
14.700,1.462,3117
14.704,1.528,3107
14.708,1.397,3107
14.712,1.095,3107
14.716,0.655,3107
14.720,-0.492,3107
14.724,-1.002,3107
14.728,-1.510,3107
14.732,-1.923,3107
14.736,-2.163,3107
14.740,-2.220,3116
14.744,-2.092,3116
14.748,-1.802,3116
14.752,-1.363,3116
14.756,-0.848,3116
14.760,-0.305,3116
14.764,0.247,3116
14.768,0.772,3116
14.772,1.195,3116
14.776,1.448,3116
14.780,1.508,3129
14.784,1.373,3129
14.788,1.067,3129
14.792,0.618,3129
14.796,0.107,3129
14.800,-1.083,3129
14.804,-1.528,3129
14.808,-1.948,3129
14.812,-2.183,3129
14.816,-2.252,3120
14.820,-2.112,3120
14.824,-1.817,3120
14.828,-1.377,3120
14.832,-0.858,3120
14.836,-0.328,3120
14.840,0.228,3120
14.844,0.760,3120
14.848,1.188,3120
14.852,1.433,3120
14.856,1.498,3111
14.860,1.375,3111
14.864,1.062,3111
14.868,0.623,3111
14.872,0.113,3111
14.876,-0.422,3111
14.880,-1.605,3111
14.884,-1.948,3111
14.888,-2.188,3111
14.892,-2.257,3128
14.896,-2.127,3128
14.900,-1.827,3128
14.904,-1.377,3128
14.908,-0.855,3128
14.912,-0.323,3128
14.916,0.250,3128
14.920,0.777,3128
14.924,1.198,3128
14.928,1.460,3128
14.932,1.532,3119
14.936,1.405,3119
14.940,1.095,3119
14.944,0.662,3119
14.948,0.145,3119
14.952,-0.405,3119
14.956,-0.983,3119
14.960,-2.007,3119
14.964,-2.192,3119
14.968,-2.272,3140
14.972,-2.143,3140
14.976,-1.833,3140
14.980,-1.387,3140
14.984,-0.863,3140
14.988,-0.328,3140
14.992,0.253,3140
14.996,0.780,3140
15.000,1.212,3140
15.004,1.460,3140
15.008,1.518,3120
15.012,1.387,3120
15.016,1.067,3120
15.020,0.623,3120
15.024,0.107,3120
15.028,-0.445,3120
15.032,-1.012,3120
15.036,-1.550,3120
15.040,-2.217,3120
15.044,-2.260,3140
15.048,-2.123,3140
15.052,-1.820,3140
15.056,-1.373,3140
15.060,-0.848,3140
15.064,-0.300,3140
15.068,0.268,3140
15.072,0.797,3140
15.076,1.220,3140
15.080,1.468,3140
15.084,1.528,3117
15.088,1.387,3117
15.092,1.067,3117
15.096,0.618,3117
15.100,0.107,3117
15.104,-0.438,3117
15.108,-1.008,3117
15.112,-1.565,3117
15.116,-1.950,3117
15.120,-2.228,3130
15.124,-1.775,3130
15.128,-1.347,3130
15.132,-0.815,3130
15.136,-0.290,3130
15.140,0.270,3130
15.144,0.797,3130
15.148,1.222,3130
15.152,1.482,3130
15.156,1.538,3122
15.160,1.397,3122
15.164,1.077,3122
15.168,0.637,3122
15.172,0.128,3122
15.176,-0.425,3122
15.180,-0.993,3122
15.184,-1.538,3122
15.188,-1.970,3122
15.192,-2.205,3122
15.196,-2.268,3139
15.200,-1.762,3139
15.204,-1.403,3139
15.208,-0.873,3139
15.212,-0.338,3139
15.216,0.228,3139
15.220,0.757,3139
15.224,1.188,3139
15.228,1.435,3139
15.232,1.508,3113
15.236,1.377,3113
15.240,1.065,3113
15.244,0.623,3113
15.248,0.117,3113
15.252,-0.422,3113
15.256,-0.983,3113
15.260,-1.510,3113
15.264,-1.940,3113
15.268,-2.172,3113
15.272,-2.248,3145
15.276,-2.127,3145
15.280,-1.323,3145
15.284,-0.850,3145
15.288,-0.323,3145
15.292,0.223,3145
15.296,0.757,3145
15.300,1.183,3145
15.304,1.450,3145
15.308,1.515,3140
15.312,1.380,3140
15.316,1.065,3140
15.320,0.620,3140
15.324,0.102,3140
15.328,-0.432,3140
15.332,-1.008,3140
15.336,-1.542,3140
15.340,-1.962,3140
15.344,-2.185,3140
15.348,-2.252,3130
15.352,-2.125,3130
15.356,-1.823,3130
15.360,-0.777,3130
15.364,-0.302,3130
15.368,0.340,3130
15.372,0.818,3130
15.376,1.198,3130
15.380,1.455,3130
15.384,1.525,3137
15.388,1.393,3137
15.392,1.085,3137
15.396,0.635,3137
15.400,0.130,3137
15.404,-0.422,3137
15.408,-1.000,3137
15.412,-1.532,3137
15.416,-1.948,3137
15.420,-2.188,3137
15.424,-2.263,3131
15.428,-2.135,3131
15.432,-1.840,3131
15.436,-1.387,3131
15.440,-0.230,3131
15.444,0.378,3131
15.448,0.865,3131
15.452,1.228,3131
15.456,1.462,3131
15.460,1.525,3117
15.464,1.373,3117
15.468,1.058,3117
15.472,0.598,3117
15.476,0.087,3117
15.480,-0.448,3117
15.484,-1.028,3117
15.488,-1.555,3117
15.492,-1.982,3117
15.496,-2.212,3117
15.500,-2.263,3114
15.504,-2.132,3114
15.508,-1.827,3114
15.512,-1.387,3114
15.516,-0.882,3114
15.520,0.318,3114
15.524,0.750,3114
15.528,1.175,3114
15.532,1.430,3114
15.536,1.500,3114
15.540,1.377,3116
15.544,1.052,3116
15.548,0.618,3116
15.552,0.110,3116
15.556,-0.422,3116
15.560,-0.990,3116
15.564,-1.528,3116
15.568,-1.948,3116
15.572,-2.183,3116
15.576,-2.263,3116
15.580,-2.130,3112
15.584,-1.817,3112
15.588,-1.383,3112
15.592,-0.868,3112
15.596,-0.335,3112
15.600,0.843,3112
15.604,1.192,3112
15.608,1.427,3112
15.612,1.502,3112
15.616,1.373,3106
15.620,1.060,3106
15.624,0.618,3106
15.628,0.110,3106
15.632,-0.427,3106
15.636,-1.000,3106
15.640,-1.540,3106
15.644,-1.962,3106
15.648,-2.192,3106
15.652,-2.265,3106
15.656,-2.140,3105
15.660,-1.827,3105
15.664,-1.393,3105
15.668,-0.873,3105
15.672,-0.343,3105
15.676,0.233,3105
15.680,1.248,3105
15.684,1.452,3105
15.688,1.512,3105
15.692,1.380,3112
15.696,1.060,3112
15.700,0.618,3112
15.704,0.107,3112
15.708,-0.427,3112
15.712,-1.008,3112
15.716,-1.538,3112
15.720,-1.962,3112
15.724,-2.190,3112
15.728,-2.252,3112
15.732,-2.123,3123
15.736,-1.812,3123
15.740,-1.373,3123
15.744,-0.848,3123
15.748,-0.307,3123
15.752,0.258,3123
15.756,0.787,3123
15.760,1.490,3123
15.764,1.540,3123
15.768,1.407,3113
15.772,1.087,3113
15.776,0.657,3113
15.780,0.138,3113
15.784,-0.412,3113
15.788,-0.983,3113
15.792,-1.522,3113
15.796,-1.942,3113
15.800,-2.178,3113
15.804,-2.252,3113
15.808,-2.123,3113
15.812,-1.812,3113
15.816,-1.380,3113
15.820,-0.863,3113
15.824,-0.333,3113
15.828,0.223,3113
15.832,0.752,3113
15.836,1.185,3113
15.840,1.490,3113
15.844,1.353,3103
15.848,0.550,3103
15.852,0.100,3103
15.856,-0.448,3103
15.860,-1.018,3103
15.864,-1.552,3103
15.868,-1.972,3103
15.872,-2.208,3103
15.876,-2.268,3103
15.880,-2.138,3127
15.884,-1.808,3127
15.888,-1.387,3127
15.892,-0.858,3127
15.896,-0.328,3127
15.900,0.250,3127
15.904,0.780,3127
15.908,1.222,3127
15.912,1.462,3127
15.916,1.525,3127
15.920,1.012,3125
15.924,0.077,3125
15.928,-0.432,3125
15.932,-1.005,3125
15.936,-1.542,3125
15.940,-1.962,3125
15.944,-2.197,3125
15.948,-2.257,3125
15.952,-2.123,3135
15.956,-1.802,3135
15.960,-1.347,3135
15.964,-0.828,3135
15.968,-0.287,3135
15.972,0.268,3135
15.976,0.785,3135
15.980,1.212,3135
15.984,1.458,3135
15.988,1.510,3135
15.992,1.377,3131
15.996,1.060,3131
16.000,0.013,3131
16.004,-0.448,3131
16.008,-1.020,3131
16.012,-1.552,3131
16.016,-1.972,3131
16.020,-2.208,3131
16.024,-2.272,3131
16.028,-2.140,3143
16.032,-1.830,3143
16.036,-1.387,3143
16.040,-0.863,3143
16.044,-0.323,3143
16.048,0.250,3143
16.052,0.775,3143
16.056,1.208,3143
16.060,1.455,3143
16.064,1.505,3143
16.068,1.380,3139
16.072,1.058,3139
16.076,0.613,3139
16.080,-0.613,3139
16.084,-1.032,3139
16.088,-1.583,3139
16.092,-1.970,3139
16.096,-2.192,3139
16.100,-2.260,3139
16.104,-2.123,3129
16.108,-1.800,3129
16.112,-1.353,3129
16.116,-0.833,3129
16.120,-0.292,3129
16.124,0.268,3129
16.128,0.790,3129
16.132,1.208,3129
16.136,1.460,3129
16.140,1.528,3129
16.144,1.385,3131
16.148,1.067,3131
16.152,0.620,3131
16.156,0.107,3131
16.160,-1.093,3131
16.164,-1.542,3131
16.168,-1.962,3131
16.172,-2.192,3131
16.176,-2.255,3131
16.180,-2.127,3129
16.184,-1.815,3129
16.188,-1.377,3129
16.192,-0.855,3129
16.196,-0.307,3129
16.200,0.258,3129
16.204,0.782,3129
16.208,1.208,3129
16.212,1.460,3129
16.216,1.528,3129
16.220,1.393,3129
16.224,1.070,3129
16.228,0.623,3129
16.232,0.128,3129
16.236,-0.420,3129
16.240,-1.617,3129
16.244,-1.962,3129
16.248,-2.188,3129
16.252,-2.250,3129
16.256,-2.107,3110
16.260,-1.808,3110
16.264,-1.367,3110
16.268,-0.807,3110
16.272,-0.297,3110
16.276,0.265,3110
16.280,0.792,3110
16.284,1.218,3110
16.288,1.462,3110
16.292,1.512,3110
16.296,1.383,3138
16.300,1.048,3138
16.304,0.598,3138
16.308,0.090,3138
16.312,-0.458,3138
16.316,-1.025,3138
16.320,-2.022,3138
16.324,-2.203,3138
16.328,-2.257,3138
16.332,-2.123,3129
16.336,-1.808,3129
16.340,-1.363,3129
16.344,-0.843,3129
16.348,-0.302,3129
16.352,0.258,3129
16.356,0.782,3129
16.360,1.198,3129
16.364,1.438,3129
16.368,1.505,3129
16.372,1.373,3129
16.376,1.048,3129
16.380,0.608,3129
16.384,0.098,3129
16.388,-0.448,3129
16.392,-1.012,3129
16.396,-1.542,3129
16.400,-2.203,3129
16.404,-2.240,3129
16.408,-2.103,3125
16.412,-1.792,3125
16.416,-1.350,3125
16.420,-0.833,3125
16.424,-0.295,3125
16.428,0.268,3125
16.432,0.792,3125
16.436,1.218,3125
16.440,1.455,3125
16.444,1.518,3125
16.448,1.383,3118
16.452,1.052,3118
16.456,0.613,3118
16.460,0.107,3118
16.464,-0.432,3118
16.468,-1.008,3118
16.472,-1.540,3118
16.476,-1.952,3118
16.480,-2.250,3118
16.484,-2.123,3122
16.488,-1.827,3122
16.492,-1.397,3122
16.496,-0.882,3122
16.500,-0.343,3122
16.504,0.223,3122
16.508,0.748,3122
16.512,1.167,3122
16.516,1.410,3122
16.520,1.475,3122
16.524,1.343,3137
16.528,1.012,3137
16.532,0.573,3137
16.536,0.068,3137
16.540,-0.463,3137
16.544,-1.022,3137
16.548,-1.552,3137
16.552,-1.970,3137
16.556,-2.192,3137
16.560,-2.080,3118
16.564,-1.327,3118
16.568,-0.828,3118
16.572,-0.292,3118
16.576,0.263,3118
16.580,0.782,3118
16.584,1.198,3118
16.588,1.435,3118
16.592,1.508,3118
16.596,1.375,3118
16.600,1.055,3120
16.604,0.593,3120
16.608,0.077,3120
16.612,-0.463,3120
16.616,-1.028,3120
16.620,-1.562,3120
16.624,-1.980,3120
16.628,-2.205,3120
16.632,-2.265,3120
16.636,-2.140,3120
16.640,-1.323,3112
16.644,-0.340,3112
16.648,0.268,3112
16.652,0.767,3112
16.656,1.157,3112
16.660,1.410,3112
16.664,1.478,3112
16.668,1.343,3112
16.672,1.012,3129
16.676,0.568,3129
16.680,0.068,3129
16.684,-0.468,3129
16.688,-1.032,3129
16.692,-1.562,3129
16.696,-1.975,3129
16.700,-2.208,3129
16.704,-2.257,3129
16.708,-2.127,3129
16.712,-1.810,3107
16.716,-1.343,3107
16.720,-0.217,3107
16.724,0.292,3107
16.728,0.777,3107
16.732,1.192,3107
16.736,1.430,3107
16.740,1.498,3107
16.744,1.355,3107
16.748,1.038,3100
16.752,0.583,3100
16.756,0.072,3100
16.760,-0.460,3100
16.764,-1.022,3100
16.768,-1.567,3100
16.772,-1.988,3100
16.776,-2.210,3100
16.780,-2.268,3100
16.784,-2.138,3100
16.788,-1.825,3112
16.792,-1.373,3112
16.796,-0.870,3112
16.800,0.343,3112
16.804,0.790,3112
16.808,1.190,3112
16.812,1.435,3112
16.816,1.500,3112
16.820,1.377,3112
16.824,1.052,3114
16.828,0.593,3114
16.832,0.095,3114
16.836,-0.455,3114
16.840,-1.022,3114
16.844,-1.562,3114
16.848,-1.982,3114
16.852,-2.217,3114
16.856,-2.272,3114
16.860,-2.140,3114
16.864,-1.820,3129
16.868,-1.363,3129
16.872,-0.840,3129
16.876,-0.287,3129
16.880,0.890,3129
16.884,1.228,3129
16.888,1.472,3129
16.892,1.532,3129
16.896,1.387,3129
16.900,1.062,3111
16.904,0.598,3111
16.908,0.100,3111
16.912,-0.448,3111
16.916,-1.020,3111
16.920,-1.552,3111
16.924,-1.972,3111
16.928,-2.195,3111
16.932,-2.265,3111
16.936,-2.138,3111
16.940,-1.827,3119
16.944,-1.377,3119
16.948,-0.858,3119
16.952,-0.328,3119
16.956,0.245,3119
16.960,1.238,3119
16.964,1.427,3119
16.968,1.502,3119
16.972,1.357,3119
16.976,1.040,3143
16.980,0.585,3143
16.984,0.077,3143
16.988,-0.458,3143
16.992,-1.022,3143
16.996,-1.550,3143
17.000,-1.970,3143
17.004,-2.183,3143
17.008,-2.248,3143
17.012,-2.103,3143
17.016,-1.790,3121
17.020,-1.337,3121
17.024,-0.823,3121
17.028,-0.287,3121
17.032,0.273,3121
17.036,0.812,3121
17.040,1.482,3121
17.044,1.500,3121
17.048,1.357,3121
17.052,1.025,3124
17.056,0.552,3124
17.060,0.055,3124
17.064,-0.640,3124
17.068,-1.050,3124
17.072,-1.573,3124
17.076,-1.982,3124
17.080,-2.192,3124
17.084,-2.257,3124
17.088,-2.107,3124
17.092,-1.792,3141
17.096,-1.330,3141
17.100,-0.818,3141
17.104,-0.273,3141
17.108,0.278,3141
17.112,0.823,3141
17.116,1.235,3141
17.120,1.522,3141
17.124,1.383,3141
17.128,1.067,3126
17.132,0.598,3126
17.136,0.098,3126
17.140,-0.443,3126
17.144,-1.015,3126
17.148,-1.538,3126
17.152,-1.942,3126
17.156,-2.172,3126
17.160,-2.223,3126
17.164,-2.100,3126
17.168,-1.792,3141
17.172,-1.343,3141
17.176,-0.830,3141
17.180,-0.295,3141
17.184,0.260,3141
17.188,0.785,3141
17.192,1.210,3141
17.196,1.458,3141
17.200,1.333,3141
17.204,1.052,3132
17.208,0.588,3132
17.212,0.087,3132
17.216,-0.460,3132
17.220,-1.025,3132
17.224,-1.562,3132
17.228,-1.972,3132
17.232,-2.195,3132
17.236,-2.255,3132
17.240,-2.127,3132
17.244,-1.817,3084
17.248,-1.383,3084
17.252,-0.868,3084
17.256,-0.345,3084
17.260,0.220,3084
17.264,0.743,3084
17.268,1.167,3084
17.272,1.410,3084
17.276,1.472,3084
17.280,0.945,3142
17.284,0.028,3142
17.288,-0.505,3142
17.292,-1.050,3142
17.296,-1.567,3142
17.300,-1.970,3142
17.304,-2.188,3142
17.308,-2.252,3142
17.312,-2.107,3142
17.316,-1.800,3102
17.320,-1.343,3102
17.324,-0.833,3102
17.328,-0.297,3102
17.332,0.258,3102
17.336,0.780,3102
17.340,1.192,3102
17.344,1.435,3102
17.348,1.498,3102
17.352,1.353,3102
17.356,1.032,3122
17.360,-0.018,3122
17.364,-0.455,3122
17.368,-1.018,3122
17.372,-1.548,3122
17.376,-1.968,3122
17.380,-2.195,3122
17.384,-2.263,3122
17.388,-2.132,3122
17.392,-1.825,3124
17.396,-1.383,3124
17.400,-0.868,3124
17.404,-0.345,3124
17.408,0.223,3124
17.412,0.748,3124
17.416,1.167,3124
17.420,1.413,3124
17.424,1.472,3124
17.428,1.330,3124
17.432,1.022,3090
17.436,0.568,3090
17.440,-0.578,3090
17.444,-1.052,3090
17.448,-1.577,3090
17.452,-2.002,3090
17.456,-2.223,3090
17.460,-2.288,3090
17.464,-2.140,3090
17.468,-1.845,3134
17.472,-1.390,3134
17.476,-0.880,3134
17.480,-0.338,3134
17.484,0.235,3134
17.488,0.772,3134
17.492,1.195,3134
17.496,1.452,3134
17.500,1.505,3134
17.504,1.373,3134
17.508,1.058,3115
17.512,0.583,3115
17.516,0.072,3115
17.520,-1.137,3115
17.524,-1.570,3115
17.528,-1.978,3115
17.532,-2.208,3115
17.536,-2.268,3115
17.540,-2.132,3115
17.544,-1.817,3099
17.548,-1.367,3099
17.552,-0.855,3099
17.556,-0.323,3099
17.560,0.255,3099
17.564,0.782,3099
17.568,1.208,3099
17.572,1.458,3099
17.576,1.512,3099
17.580,1.377,3099
17.584,1.060,3099
17.588,0.593,3126
17.592,0.077,3126
17.596,-0.463,3126
17.600,-1.660,3126
17.604,-1.992,3126
17.608,-2.217,3126
17.612,-2.270,3126
17.616,-2.130,3126
17.620,-1.815,3126
17.624,-1.373,3117
17.628,-0.843,3117
17.632,-0.302,3117
17.636,0.260,3117
17.640,0.787,3117
17.644,1.212,3117
17.648,1.460,3117
17.652,1.518,3117
17.656,1.380,3117
17.660,1.052,3117
17.664,0.593,3117
17.668,0.072,3117
17.672,-0.458,3117
17.676,-1.028,3117
17.680,-2.033,3117
17.684,-2.255,3117
17.688,-2.272,3117
17.692,-2.092,3117
17.696,-1.820,3112
17.700,-1.363,3112
17.704,-0.858,3112
17.708,-0.325,3112
17.712,0.250,3112
17.716,0.775,3112
17.720,1.192,3112
17.724,1.438,3112
17.728,1.500,3112
17.732,1.367,3112
17.736,1.050,3112
17.740,0.598,3123
17.744,0.087,3123
17.748,-0.448,3123
17.752,-1.012,3123
17.756,-1.542,3123
17.760,-2.203,3123
17.764,-2.243,3123
17.768,-2.105,3123
17.772,-1.808,3123
17.776,-1.367,3115
17.780,-0.843,3115
17.784,-0.328,3115
17.788,0.233,3115
17.792,0.757,3115
17.796,1.180,3115
17.800,1.423,3115
17.804,1.482,3115
17.808,1.345,3115
17.812,1.030,3115
17.816,0.588,3108
17.820,0.037,3108
17.824,-0.482,3108
17.828,-1.048,3108
17.832,-1.570,3108
17.836,-1.972,3108
17.840,-2.228,3108
17.844,-2.095,3108
17.848,-1.792,3108
17.852,-1.343,3089
17.856,-0.823,3089
17.860,-0.302,3089
17.864,0.258,3089
17.868,0.787,3089
17.872,1.198,3089
17.876,1.438,3089
17.880,1.498,3089
17.884,1.345,3089
17.888,1.028,3089
17.892,0.580,3098
17.896,0.060,3098
17.900,-0.485,3098
17.904,-1.048,3098
17.908,-1.575,3098
17.912,-1.988,3098
17.916,-2.215,3098
17.920,-2.095,3098
17.924,-1.800,3098
17.928,-1.367,3102
17.932,-0.823,3102
17.936,-0.287,3102
17.940,0.273,3102
17.944,0.797,3102
17.948,1.218,3102
17.952,1.458,3102
17.956,1.508,3102
17.960,1.353,3102
17.964,1.032,3102
17.968,0.580,3084
17.972,0.060,3084
17.976,-0.487,3084
17.980,-1.048,3084
17.984,-1.575,3084
17.988,-1.980,3084
17.992,-2.197,3084
17.996,-2.257,3084
18.000,-1.732,3084
18.004,-1.363,3118
18.008,-0.843,3118
18.012,-0.325,3118
18.016,0.235,3118
18.020,0.755,3118
18.024,1.170,3118
18.028,1.407,3118
18.032,1.460,3118
18.036,1.327,3118
18.040,1.008,3118
18.044,0.552,3113
18.048,0.048,3113
18.052,-0.497,3113
18.056,-1.052,3113
18.060,-1.577,3113
18.064,-1.985,3113
18.068,-2.205,3113
18.072,-2.260,3113
18.076,-2.123,3113
18.080,-1.258,3132
18.084,-0.273,3132
18.088,0.273,3132
18.092,0.797,3132
18.096,1.218,3132
18.100,1.460,3132
18.104,1.502,3132
18.108,1.350,3132
18.112,1.028,3132
18.116,0.578,3075
18.120,0.055,3075
18.124,-0.495,3075
18.128,-1.058,3075
18.132,-1.583,3075
18.136,-2.002,3075
18.140,-2.217,3075
18.144,-2.283,3075
18.148,-2.138,3075
18.152,-1.825,3075
18.156,-1.375,3135
18.160,-0.223,3135
18.164,0.260,3135
18.168,0.828,3135
18.172,1.208,3135
18.176,1.450,3135
18.180,1.502,3135
18.184,1.367,3135
18.188,1.050,3135
18.192,0.588,3138
18.196,0.060,3138
18.200,-0.465,3138
18.204,-1.067,3138
18.208,-1.567,3138
18.212,-1.978,3138
18.216,-2.208,3138
18.220,-2.268,3138
18.224,-2.127,3138
18.228,-1.817,3138
18.232,-1.365,3158
18.236,-0.845,3158
18.240,0.347,3158
18.244,0.868,3158
18.248,1.258,3158
18.252,1.433,3158
18.256,1.495,3158
18.260,1.353,3158
18.264,1.032,3158
18.268,0.593,3135
18.272,0.068,3135
18.276,-0.458,3135
18.280,-1.028,3135
18.284,-1.558,3135
18.288,-1.975,3135
18.292,-2.205,3135
18.296,-2.260,3135
18.300,-2.127,3135
18.304,-1.817,3135
18.308,-1.363,3125
18.312,-0.828,3125
18.316,-0.290,3125
18.320,0.897,3125
18.324,1.230,3125
18.328,1.472,3125
18.332,1.522,3125
18.336,1.380,3125
18.340,1.055,3125
18.344,0.600,3127
18.348,-0.052,3127
18.352,-0.468,3127
18.356,-1.030,3127
18.360,-1.550,3127
18.364,-1.970,3127
18.368,-2.192,3127
18.372,-2.252,3127
18.376,-2.123,3127
18.380,-1.808,3127
18.384,-1.353,3120
18.388,-0.833,3120
18.392,-0.292,3120
18.396,0.258,3120
18.400,1.252,3120
18.404,1.438,3120
18.408,1.500,3120
18.412,1.355,3120
18.416,1.035,3120
18.420,0.583,3138
18.424,0.062,3138
18.428,-0.465,3138
18.432,-1.032,3138
18.436,-1.562,3138
18.440,-1.980,3138
18.444,-2.212,3138
18.448,-2.272,3138
18.452,-2.138,3138
18.456,-1.827,3138
18.460,-1.387,3132
18.464,-0.863,3132
18.468,-0.338,3132
18.472,0.228,3132
18.476,0.757,3132
18.480,1.433,3132
18.484,1.472,3132
18.488,1.327,3132
18.492,1.010,3132
18.496,0.550,3122
18.500,0.037,3122
18.504,-0.507,3122
18.508,-1.067,3122
18.512,-1.615,3122
18.516,-2.020,3122
18.520,-2.248,3122
18.524,-2.292,3122
18.528,-2.143,3122
18.532,-1.827,3122
18.536,-1.377,3130
18.540,-0.858,3130
18.544,-0.328,3130
18.548,0.247,3130
18.552,0.777,3130
18.556,1.188,3130
18.560,1.508,3130
18.564,1.340,3130
18.568,1.028,3130
18.572,0.578,3114
18.576,0.037,3114
18.580,-0.510,3114
18.584,-1.070,3114
18.588,-1.607,3114
18.592,-2.002,3114
18.596,-2.223,3114
18.600,-2.263,3114
18.604,-2.123,3114
18.608,-1.808,3114
18.612,-1.343,3114
18.616,-0.772,3114
18.620,-0.250,3114
18.624,0.300,3114
18.628,0.833,3114
18.632,1.238,3114
18.636,1.485,3114
18.640,1.333,3114
18.644,1.050,3114
18.648,0.580,3114
18.652,0.058,3113
18.656,-0.512,3113
18.660,-1.070,3113
18.664,-1.615,3113
18.668,-2.013,3113
18.672,-2.228,3113
18.676,-2.272,3113
18.680,-2.130,3113
18.684,-1.817,3113
18.688,-1.365,3113
18.692,-0.833,3114
18.696,-0.290,3114
18.700,0.268,3114
18.704,0.792,3114
18.708,1.205,3114
18.712,1.438,3114
18.716,1.498,3114
18.720,0.975,3114
18.724,0.588,3114
18.728,0.075,3085
18.732,-0.468,3085
18.736,-1.028,3085
18.740,-1.567,3085
18.744,-1.968,3085
18.748,-2.180,3085
18.752,-2.217,3085
18.756,-2.067,3085
18.760,-1.748,3085
18.764,-1.308,3085
18.768,-0.782,3110
18.772,-0.255,3110
18.776,0.302,3110
18.780,0.833,3110
18.784,1.232,3110
18.788,1.470,3110
18.792,1.518,3110
18.796,1.350,3110
18.800,0.507,3091
18.804,-0.487,3091
18.808,-1.042,3091
18.812,-1.552,3091
18.816,-1.968,3091
18.820,-2.190,3091
18.824,-2.252,3091
18.828,-2.110,3091
18.832,-1.805,3091
18.836,-1.353,3091
18.840,-0.843,3131
18.844,-0.297,3131
18.848,0.253,3131
18.852,0.777,3131
18.856,1.183,3131
18.860,1.417,3131
18.864,1.470,3131
18.868,1.330,3131
18.872,1.008,3131
18.876,0.552,3131
18.880,-0.583,3102
18.884,-1.583,3102
18.888,-1.982,3102
18.892,-2.195,3102
18.896,-2.245,3102
18.900,-2.092,3102
18.904,-1.772,3102
18.908,-1.330,3102
18.912,-0.812,3104
18.916,-0.268,3104
18.920,0.275,3104
18.924,0.787,3104
18.928,1.190,3104
18.932,1.423,3104
18.936,1.472,3104
18.940,1.337,3104
18.944,1.022,3104
18.948,0.580,3104
18.952,0.068,3104
18.956,-0.492,3104
18.960,-1.640,3104
18.964,-1.968,3104
18.968,-2.183,3104
18.972,-2.228,3104
18.976,-2.067,3104
18.980,-1.782,3104
18.984,-1.333,3104
18.988,-0.818,3117
18.992,-0.255,3117
18.996,0.278,3117
19.000,0.823,3117
19.004,1.212,3117
19.008,1.430,3117
19.012,1.478,3117
19.016,1.337,3117
19.020,1.002,3117
19.024,0.547,3117
19.028,0.043,3111
19.032,-0.512,3111
19.036,-1.062,3111
19.040,-2.035,3111
19.044,-2.208,3111
19.048,-2.255,3111
19.052,-2.112,3111
19.056,-1.792,3111
19.060,-1.347,3111
19.064,-0.833,3132
19.068,-0.290,3132
19.072,0.258,3132
19.076,0.770,3132
19.080,1.180,3132
19.084,1.407,3132
19.088,1.468,3132
19.092,1.323,3132
19.096,0.995,3132
19.100,0.550,3132
19.104,0.045,3127
19.108,-0.522,3127
19.112,-1.070,3127
19.116,-1.610,3127
19.120,-2.243,3127
19.124,-2.263,3127
19.128,-2.112,3127
19.132,-1.792,3127
19.136,-1.343,3127
19.140,-0.812,3134
19.144,-0.258,3134
19.148,0.292,3134
19.152,0.820,3134
19.156,1.228,3134
19.160,1.462,3134
19.164,1.508,3134
19.168,1.367,3134
19.172,1.032,3134
19.176,0.578,3134
19.180,0.060,3141
19.184,-0.500,3141
19.188,-1.062,3141
19.192,-1.605,3141
19.196,-2.013,3141
19.200,-2.270,3141
19.204,-2.095,3141
19.208,-1.812,3141
19.212,-1.367,3141
19.216,-0.812,3127
19.220,-0.292,3127
19.224,0.260,3127
19.228,0.782,3127
19.232,1.192,3127
19.236,1.430,3127
19.240,1.498,3127
19.244,1.347,3127
19.248,1.028,3127
19.252,0.573,3127
19.256,0.055,3153
19.260,-0.507,3153
19.264,-1.060,3153
19.268,-1.583,3153
19.272,-1.988,3153
19.276,-2.208,3153
19.280,-2.018,3153
19.284,-1.795,3153
19.288,-1.353,3153
19.292,-0.833,3135
19.296,-0.297,3135
19.300,0.263,3135
19.304,0.787,3135
19.308,1.210,3135
19.312,1.455,3135
19.316,1.505,3135
19.320,1.355,3135
19.324,1.032,3135
19.328,0.580,3135
19.332,0.068,3111
19.336,-0.497,3111
19.340,-1.048,3111
19.344,-1.573,3111
19.348,-1.972,3111
19.352,-2.192,3111
19.356,-2.228,3111
19.360,-1.715,3111
19.364,-1.327,3111
19.368,-0.818,3134
19.372,-0.273,3134
19.376,0.273,3134
19.380,0.795,3134
19.384,1.218,3134
19.388,1.468,3134
19.392,1.512,3134
19.396,1.373,3134
19.400,1.050,3134
19.404,0.598,3134
19.408,0.090,3133
19.412,-0.492,3133
19.416,-1.048,3133
19.420,-1.583,3133
19.424,-1.990,3133
19.428,-2.220,3133
19.432,-2.272,3133
19.436,-2.132,3133
19.440,-1.292,3133
19.444,-0.843,3127
19.448,-0.297,3127
19.452,0.258,3127
19.456,0.775,3127
19.460,1.188,3127
19.464,1.427,3127
19.468,1.492,3127
19.472,1.347,3127
19.476,1.032,3127
19.480,0.590,3127
19.484,0.087,3145
19.488,-0.463,3145
19.492,-1.028,3145
19.496,-1.567,3145
19.500,-1.980,3145
19.504,-2.208,3145
19.508,-2.263,3145
19.512,-2.120,3145
19.516,-1.802,3145
19.520,-0.743,3119
19.524,0.263,3119
19.528,0.777,3119
19.532,1.177,3119
19.536,1.407,3119
19.540,1.435,3119
19.544,1.308,3119
19.548,0.980,3119
19.552,0.532,3119
19.556,0.022,3127
19.560,-0.530,3127
19.564,-1.073,3127
19.568,-1.607,3127
19.572,-1.995,3127
19.576,-2.208,3127
19.580,-2.250,3127
19.584,-2.092,3127
19.588,-1.768,3127
19.592,-1.308,3127
19.596,-0.780,3117
19.600,0.388,3117
19.604,1.248,3117
19.608,1.460,3117
19.612,1.488,3117
19.616,1.327,3117
19.620,0.995,3117
19.624,0.573,3117
19.628,-0.068,3127
19.632,-1.127,3127
19.636,-1.573,3127
19.640,-1.978,3127
19.644,-2.188,3127
19.648,-2.248,3127
19.652,-2.092,3127
19.656,-1.778,3127
19.660,-1.323,3127
19.664,-0.805,3127
19.668,-0.263,3125
19.672,0.302,3125
19.676,0.823,3125
19.680,1.458,3125
19.684,1.488,3125
19.688,1.337,3125
19.692,1.008,3125
19.696,0.547,3125
19.700,0.028,3125
19.704,-0.530,3107
19.708,-1.097,3107
19.712,-1.623,3107
19.716,-2.022,3107
19.720,-2.228,3107
19.724,-2.275,3107
19.728,-2.112,3107
19.732,-1.792,3107
19.736,-1.337,3107
19.740,-0.812,3107
19.744,-0.260,3115
19.748,0.347,3115
19.752,0.845,3115
19.756,1.248,3115
19.760,1.508,3115
19.764,1.367,3115
19.768,0.935,3115
19.772,0.573,3115
19.776,0.058,3115
19.780,-0.497,3108
19.784,-1.087,3108
19.788,-1.607,3108
19.792,-1.992,3108
19.796,-2.212,3108
19.800,-2.257,3108
19.804,-2.100,3108
19.808,-1.778,3108
19.812,-1.330,3108
19.816,-0.802,3108
19.820,-0.258,3109
19.824,0.307,3109
19.828,0.823,3109
19.832,1.222,3109
19.836,1.460,3109
19.840,1.302,3109
19.844,1.020,3109
19.848,0.568,3109
19.852,0.052,3109
19.856,-0.497,3096
19.860,-1.067,3096
19.864,-1.603,3096
19.868,-2.002,3096
19.872,-2.212,3096
19.876,-2.265,3096
19.880,-2.112,3096
19.884,-1.792,3096
19.888,-1.337,3096
19.892,-0.815,3096
19.896,-0.268,3101
19.900,0.297,3101
19.904,0.828,3101
19.908,1.228,3101
19.912,1.470,3101
19.916,1.518,3101
19.920,0.940,3101
19.924,0.547,3101
19.928,0.030,3101
19.932,-0.522,3114
19.936,-1.060,3114
19.940,-1.520,3114
19.944,-2.038,3114
19.948,-2.217,3114
19.952,-2.243,3114
19.956,-2.087,3114
19.960,-1.772,3114
19.964,-1.323,3114
19.968,-0.785,3114
19.972,-0.258,3103
19.976,0.312,3103
19.980,0.833,3103
19.984,1.232,3103
19.988,1.468,3103
19.992,1.505,3103
19.996,1.355,3103
20.000,0.398,3103
20.004,0.037,3103
20.008,-0.562,3119
20.012,-1.073,3119
20.016,-1.603,3119
20.020,-1.985,3119
20.024,-2.188,3119
20.028,-2.228,3119
20.032,-2.090,3119
20.036,-1.772,3119
20.040,-1.323,3119
20.044,-0.800,3119
20.048,-0.247,3118
20.052,0.312,3118
20.056,0.838,3118
20.060,1.232,3118
20.064,1.468,3118
20.068,1.528,3118
20.072,1.383,3118
20.076,1.062,3118
20.080,0.013,3118
20.084,-0.458,3118
20.088,-1.038,3118
20.092,-1.555,3118
20.096,-1.962,3118
20.100,-2.183,3118
20.104,-2.223,3118
20.108,-2.083,3118
20.112,-1.768,3118
20.116,-1.312,3118
20.120,-0.782,3118
20.124,-0.253,3127
20.128,0.312,3127
20.132,0.823,3127
20.136,1.248,3127
20.140,1.468,3127
20.144,1.512,3127
20.148,1.367,3127
20.152,1.038,3127
20.156,0.590,3127
20.160,-0.552,3125
20.164,-1.585,3125
20.168,-1.952,3125
20.172,-2.172,3125
20.176,-2.210,3125
20.180,-2.062,3125
20.184,-1.762,3125
20.188,-1.308,3125
20.192,-0.802,3125
20.196,-0.258,3067
20.200,0.300,3067
20.204,0.818,3067
20.208,1.218,3067
20.212,1.438,3067
20.216,1.488,3067
20.220,1.337,3067
20.224,1.018,3067
20.228,0.568,3067
20.232,0.052,3067
20.236,-0.502,3128
20.240,-1.698,3128
20.244,-2.033,3128
20.248,-2.195,3128
20.252,-2.243,3128
20.256,-2.087,3128
20.260,-1.768,3128
20.264,-1.302,3128
20.268,-0.780,3128
20.272,-0.250,3148
20.276,0.315,3148
20.280,0.833,3148
20.284,1.222,3148
20.288,1.452,3148
20.292,1.492,3148
20.296,1.340,3148
20.300,1.008,3148
20.304,0.552,3148
20.308,0.037,3148
20.312,-0.507,3142
20.316,-1.067,3142
20.320,-2.047,3142
20.324,-2.208,3142
20.328,-2.252,3142
20.332,-2.100,3142
20.336,-1.778,3142
20.340,-1.325,3142
20.344,-0.785,3142
20.348,-0.255,3139
20.352,0.310,3139
20.356,0.838,3139
20.360,1.232,3139
20.364,1.468,3139
20.368,1.510,3139
20.372,1.350,3139
20.376,1.012,3139
20.380,0.552,3139
20.384,0.037,3139
20.388,-0.507,3142
20.392,-1.087,3142
20.396,-1.613,3142
20.400,-2.243,3142
20.404,-2.263,3142
20.408,-2.112,3142
20.412,-1.792,3142
20.416,-1.330,3142
20.420,-0.807,3142
20.424,-0.253,3148
20.428,0.312,3148
20.432,0.833,3148
20.436,1.225,3148
20.440,1.452,3148
20.444,1.492,3148
20.448,1.340,3148
20.452,1.008,3148
20.456,0.552,3148
20.460,0.048,3148
20.464,-0.502,3133
20.468,-1.083,3133
20.472,-1.603,3133
20.476,-2.002,3133
20.480,-2.248,3133
20.484,-2.092,3133
20.488,-1.738,3133
20.492,-1.268,3133
20.496,-0.767,3133
20.500,-0.228,3129
20.504,0.343,3129
20.508,0.863,3129
20.512,1.258,3129
20.516,1.488,3129
20.520,1.518,3129
20.524,1.347,3129
20.528,1.028,3129
20.532,0.568,3129
20.536,0.058,3129
20.540,-0.497,3122
20.544,-1.105,3122
20.548,-1.613,3122
20.552,-2.002,3122
20.556,-2.215,3122
20.560,-2.047,3122
20.564,-1.762,3122
20.568,-1.325,3122
20.572,-0.785,3122
20.576,-0.250,3123
20.580,0.312,3123
20.584,0.830,3123
20.588,1.228,3123
20.592,1.462,3123
20.596,1.498,3123
20.600,1.333,3123
20.604,0.998,3123
20.608,0.537,3123
20.612,0.028,3123
20.616,-0.522,3118
20.620,-1.097,3118
20.624,-1.610,3118
20.628,-2.002,3118
20.632,-2.208,3118
20.636,-2.250,3118
20.640,-1.698,3118
20.644,-1.308,3118
20.648,-0.772,3118
20.652,-0.233,3095
20.656,0.343,3095
20.660,0.858,3095
20.664,1.252,3095
20.668,1.472,3095
20.672,1.508,3095
20.676,1.343,3095
20.680,1.012,3095
20.684,0.552,3095
20.688,0.048,3095
20.692,-0.512,3095
20.696,-1.085,3112
20.700,-1.620,3112
20.704,-2.010,3112
20.708,-2.212,3112
20.712,-2.257,3112
20.716,-2.092,3112
20.720,-1.212,3112
20.724,-0.770,3112
20.728,-0.240,3112
20.732,0.318,3113
20.736,0.858,3113
20.740,1.252,3113
20.744,1.468,3113
20.748,1.515,3113
20.752,1.350,3113
20.756,1.018,3113
20.760,0.552,3113
20.764,0.043,3113
20.768,-0.510,3113
20.772,-1.083,3116
20.776,-1.623,3116
20.780,-2.007,3116
20.784,-2.217,3116
20.788,-2.260,3116
20.792,-2.112,3116
20.796,-1.785,3116
20.800,-0.705,3116
20.804,-0.260,3116
20.808,0.302,3113
20.812,0.828,3113
20.816,1.222,3113
20.820,1.458,3113
20.824,1.498,3113
20.828,1.347,3113
20.832,1.025,3113
20.836,0.573,3113
20.840,0.062,3113
20.844,-0.497,3113
20.848,-1.055,3122
20.852,-1.603,3122
20.856,-1.990,3122
20.860,-2.212,3122
20.864,-2.260,3122
20.868,-2.120,3122
20.872,-1.788,3122
20.876,-1.330,3122
20.880,-0.142,3118
20.884,0.863,3118
20.888,1.258,3118
20.892,1.472,3118
20.896,1.518,3118
20.900,1.353,3118
20.904,1.020,3118
20.908,0.525,3118
20.912,0.048,3118
20.916,-0.510,3118
20.920,-1.075,3113
20.924,-1.615,3113
20.928,-2.007,3113
20.932,-2.208,3113
20.936,-2.252,3113
20.940,-2.103,3113
20.944,-1.772,3113
20.948,-1.312,3113
20.952,-0.782,3113
20.956,-0.255,3113
20.960,0.902,3112
20.964,1.462,3112
20.968,1.505,3112
20.972,1.340,3112
20.976,0.998,3112
20.980,0.532,3112
20.984,0.020,3112
20.988,-0.537,3112
20.992,-1.097,3121
20.996,-1.627,3121
21.000,-2.015,3121
21.004,-2.215,3121
21.008,-2.250,3121
21.012,-2.090,3121
21.016,-1.740,3121
21.020,-1.265,3121
21.024,-0.745,3121
21.028,-0.210,3121
21.032,0.347,3129
21.036,0.875,3129
21.040,1.490,3129
21.044,1.515,3129
21.048,1.367,3129
21.052,1.022,3129
21.056,0.557,3129
21.060,0.048,3129
21.064,-0.507,3129
21.068,-1.075,3120
21.072,-1.613,3120
21.076,-1.992,3120
21.080,-2.208,3120
21.084,-2.252,3120
21.088,-2.092,3120
21.092,-1.778,3120
21.096,-1.323,3120
21.100,-0.782,3120
21.104,-0.250,3120
21.108,0.312,3079
21.112,0.850,3079
21.116,1.238,3079
21.120,1.492,3079
21.124,1.343,3079
21.128,1.008,3079
21.132,0.537,3079
21.136,0.028,3079
21.140,-0.532,3079
21.144,-1.090,3081
21.148,-1.625,3081
21.152,-2.020,3081
21.156,-2.215,3081
21.160,-2.252,3081
21.164,-2.098,3081
21.168,-1.768,3081
21.172,-1.298,3081
21.176,-0.770,3081
21.180,-0.223,3081
21.184,0.347,3129
21.188,0.868,3129
21.192,1.255,3129
21.196,1.472,3129
21.200,1.300,3129
21.204,0.993,3129
21.208,0.532,3129
21.212,0.018,3129
21.216,-0.542,3129
21.220,-1.110,3132
21.224,-1.650,3132
21.228,-2.027,3132
21.232,-2.243,3132
21.236,-2.272,3132
21.240,-2.103,3132
21.244,-1.780,3132
21.248,-1.308,3132
21.252,-0.770,3132
21.256,-0.228,3132
21.260,0.340,3145
21.264,0.868,3145
21.268,1.258,3145
21.272,1.490,3145
21.276,1.528,3145
21.280,0.948,3145
21.284,0.540,3145
21.288,0.050,3145
21.292,-0.537,3145
21.296,-1.067,3134
21.300,-1.613,3134
21.304,-1.982,3134
21.308,-2.185,3134
21.312,-2.217,3134
21.316,-1.907,3134
21.320,-1.292,3134
21.324,-0.770,3134
21.328,-0.242,3134
21.332,0.318,3141
21.336,0.850,3141
21.340,1.222,3141
21.344,1.450,3141
21.348,1.478,3141
21.352,1.327,3141
21.356,0.998,3141
21.360,-0.070,3141
21.364,-0.552,3141
21.368,-1.077,3131
21.372,-1.623,3131
21.376,-2.005,3131
21.380,-2.208,3131
21.384,-2.228,3131
21.388,-2.062,3131
21.392,-1.742,3131
21.396,-1.292,3131
21.400,-0.765,3131
21.404,-0.240,3131
21.408,0.345,3137
21.412,0.863,3137
21.416,1.252,3137
21.420,1.472,3137
21.424,1.505,3137
21.428,1.345,3137
21.432,1.005,3137
21.436,0.532,3137
21.440,-0.623,3137
21.444,-1.100,3127
21.448,-1.633,3127
21.452,-2.013,3127
21.456,-2.217,3127
21.460,-2.257,3127
21.464,-2.092,3127
21.468,-1.768,3127
21.472,-1.302,3127
21.476,-0.777,3127
21.480,-0.228,3127
21.484,0.340,3131
21.488,0.863,3131
21.492,1.248,3131
21.496,1.468,3131
21.500,1.500,3131
21.504,1.337,3131
21.508,1.008,3131
21.512,0.542,3131
21.516,0.033,3131
21.520,-1.143,3122
21.524,-2.013,3122
21.528,-2.205,3122
21.532,-2.243,3122
21.536,-2.085,3122
21.540,-1.748,3122
21.544,-1.308,3122
21.548,-0.780,3122
21.552,-0.247,3122
21.556,0.312,3098
21.560,0.838,3098
21.564,1.228,3098
21.568,1.458,3098
21.572,1.498,3098
21.576,1.340,3098
21.580,0.998,3098
21.584,0.535,3098
21.588,0.020,3098
21.592,-0.532,3098
21.596,-1.087,3115
21.600,-2.058,3115
21.604,-2.217,3115
21.608,-2.230,3115
21.612,-2.083,3115
21.616,-1.742,3115
21.620,-1.292,3115
21.624,-0.765,3115
21.628,-0.228,3115
21.632,0.318,3119
21.636,0.848,3119
21.640,1.228,3119
21.644,1.438,3119
21.648,1.475,3119
21.652,1.308,3119
21.656,0.978,3119
21.660,0.525,3119
21.664,0.018,3119
21.668,-0.532,3119
21.672,-1.093,3131
21.676,-1.633,3131
21.680,-2.220,3131
21.684,-2.228,3131
21.688,-2.058,3131
21.692,-1.728,3131
21.696,-1.252,3131
21.700,-0.735,3131
21.704,-0.190,3131
21.708,0.380,3131
21.712,0.887,3135
21.716,1.298,3135
21.720,1.495,3135
21.724,1.528,3135
21.728,1.353,3135
21.732,1.010,3135
21.736,0.542,3135
21.740,0.022,3135
21.744,-0.527,3135
21.748,-1.090,3135
21.752,-1.623,3119
21.756,-2.013,3119
21.760,-2.228,3119
21.764,-2.085,3119
21.768,-1.742,3119
21.772,-1.262,3119
21.776,-0.740,3119
21.780,-0.190,3119
21.784,0.375,3119
21.788,0.890,3123
21.792,1.300,3123
21.796,1.500,3123
21.800,1.532,3123
21.804,1.357,3123
21.808,1.012,3123
21.812,0.542,3123
21.816,0.022,3123
21.820,-0.532,3123
21.824,-1.103,3123
21.828,-1.627,3127
21.832,-2.018,3127
21.836,-2.210,3127
21.840,-2.022,3127
21.844,-1.738,3127
21.848,-1.268,3127
21.852,-0.748,3127
21.856,-0.212,3127
21.860,0.352,3127
21.864,0.868,3122
21.868,1.258,3122
21.872,1.465,3122
21.876,1.495,3122
21.880,1.333,3122
21.884,0.988,3122
21.888,0.527,3122
21.892,0.020,3122
21.896,-0.537,3122
21.900,-1.090,3122
21.904,-1.617,3110
21.908,-2.013,3110
21.912,-2.212,3110
21.916,-2.250,3110
21.920,-1.688,3110
21.924,-1.258,3110
21.928,-0.767,3110
21.932,-0.220,3110
21.936,0.350,3110
21.940,0.868,3113
21.944,1.270,3113
21.948,1.488,3113
21.952,1.512,3113
21.956,1.353,3113
21.960,1.022,3113
21.964,0.568,3113
21.968,0.048,3113
21.972,-0.512,3113
21.976,-1.077,3113
21.980,-1.607,3096
21.984,-2.002,3096
21.988,-2.197,3096
21.992,-2.248,3096
21.996,-2.083,3096
22.000,-1.188,3096
22.004,-0.743,3096
22.008,-0.215,3096
22.012,0.347,3096
22.016,0.860,3139
22.020,1.252,3139
22.024,1.472,3139
22.028,1.502,3139
22.032,1.340,3139
22.036,1.005,3139
22.040,0.537,3139
22.044,0.018,3139
22.048,-0.537,3139
22.052,-1.100,3139
22.056,-1.630,3109
22.060,-2.020,3109
22.064,-2.217,3109
22.068,-2.248,3109
22.072,-2.087,3109
22.076,-1.740,3109
22.080,-0.657,3109
22.084,-0.193,3109
22.088,0.657,3120
22.092,1.270,3120
22.096,1.500,3120
22.100,1.510,3120
22.104,1.343,3120
22.108,1.005,3120
22.112,0.535,3120
22.116,-0.098,3120
22.120,-0.545,3120
22.124,-1.097,3120
22.128,-1.625,3122
22.132,-2.020,3122
22.136,-2.223,3122
22.140,-2.263,3122
22.144,-2.103,3122
22.148,-1.782,3122
22.152,-1.327,3122
22.156,-0.807,3122
22.160,0.395,3122
22.164,0.865,3120
22.168,1.248,3120
22.172,1.465,3120
22.176,1.500,3120
22.180,1.330,3120
22.184,0.988,3120
22.188,0.512,3120
22.192,-0.020,3120
22.196,-0.568,3120
22.200,-1.135,3120
22.204,-1.655,3141
22.208,-2.035,3141
22.212,-2.228,3141
22.216,-2.255,3141
22.220,-2.087,3141
22.224,-1.738,3141
22.228,-1.268,3141
22.232,-0.750,3141
22.236,-0.210,3141
22.240,0.958,3121
22.244,1.498,3121
22.248,1.528,3121
22.252,1.347,3121
22.256,1.008,3121
22.260,0.532,3121
22.264,-0.013,3121
22.268,-0.562,3121
22.272,-1.130,3121
22.276,-1.660,3122
22.280,-2.055,3122
22.284,-2.260,3122
22.288,-2.288,3122
22.292,-2.107,3122
22.296,-1.772,3122
22.300,-1.302,3122
22.304,-0.767,3122
22.308,-0.223,3122
22.312,0.343,3122
22.316,0.863,3130
22.320,1.478,3130
22.324,1.498,3130
22.328,1.327,3130
22.332,0.988,3130
22.336,0.532,3130
22.340,0.022,3130
22.344,-0.537,3130
22.348,-1.097,3130
22.352,-1.617,3145
22.356,-2.007,3145
22.360,-2.192,3145
22.364,-2.217,3145
22.368,-2.058,3145
22.372,-1.725,3145
22.376,-1.258,3145
22.380,-0.740,3145
22.384,-0.203,3145
22.388,0.367,3145
22.392,0.887,3141
22.396,1.270,3141
22.400,1.492,3141
22.404,1.268,3141
22.408,0.943,3141
22.412,0.527,3141
22.416,0.060,3141
22.420,-0.492,3141
22.424,-0.988,3141
22.428,-1.630,3137
22.432,-2.047,3137
22.436,-2.228,3137
22.440,-2.270,3137
22.444,-2.112,3137
22.448,-1.788,3137
22.452,-1.302,3137
22.456,-0.782,3137
22.460,-0.230,3137
22.464,0.338,3137
22.468,0.865,3143
22.472,1.265,3143
22.476,1.478,3143
22.480,1.300,3143
22.484,0.953,3143
22.488,0.532,3143
22.492,0.020,3143
22.496,-0.537,3143
22.500,-1.097,3143
22.504,-1.627,3128
22.508,-2.020,3128
22.512,-2.215,3128
22.516,-2.250,3128
22.520,-2.087,3128
22.524,-1.748,3128
22.528,-1.292,3128
22.532,-0.752,3128
22.536,-0.217,3128
22.540,0.347,3128
22.544,0.868,3138
22.548,1.250,3138
22.552,1.462,3138
22.556,1.492,3138
22.560,0.910,3138
22.564,0.527,3138
22.568,-0.013,3138
22.572,-0.552,3138
22.576,-1.107,3138
22.580,-1.647,3116
22.584,-2.047,3116
22.588,-2.250,3116
22.592,-2.270,3116
22.596,-2.105,3116
22.600,-1.772,3116
22.604,-1.308,3116
22.608,-0.767,3116
22.612,-0.242,3116
22.616,0.340,3116
22.620,0.858,3128
22.624,1.238,3128
22.628,1.452,3128
22.632,1.488,3128
22.636,1.308,3128
22.640,0.412,3128
22.644,-0.028,3128
22.648,-0.568,3128
22.652,-1.133,3128
22.656,-1.645,3126
22.660,-2.027,3126
22.664,-2.215,3126
22.668,-2.243,3126
22.672,-2.053,3126
22.676,-1.710,3126
22.680,-1.238,3126
22.684,-0.723,3126
22.688,-0.177,3126
22.692,0.388,3126
22.696,0.897,3121
22.700,1.278,3121
22.704,1.488,3121
22.708,1.502,3121
22.712,1.330,3121
22.716,0.978,3121
22.720,-0.107,3121
22.724,-0.593,3121
22.728,-1.130,3121
22.732,-1.645,3113
22.736,-2.018,3113
22.740,-2.208,3113
22.744,-2.220,3113
22.748,-2.050,3113
22.752,-1.712,3113
22.756,-1.248,3113
22.760,-0.730,3113
22.764,-0.190,3113
22.768,0.383,3113
22.772,0.897,3113
22.776,1.270,3124
22.780,1.485,3124
22.784,1.508,3124
22.788,1.337,3124
22.792,0.983,3124
22.796,0.517,3124
22.800,-0.662,3124
22.804,-1.133,3124
22.808,-1.653,3124
22.812,-2.033,3122
22.816,-2.228,3122
22.820,-2.257,3122
22.824,-2.087,3122
22.828,-1.738,3122
22.832,-1.262,3122
22.836,-0.743,3122
22.840,-0.177,3122
22.844,0.352,3122
22.848,0.863,3122
22.852,1.240,3098
22.856,1.450,3098
22.860,1.472,3098
22.864,1.278,3098
22.868,0.948,3098
22.872,0.497,3098
22.876,-0.022,3098
22.880,-1.188,3098
22.884,-1.620,3098
22.888,-1.992,3102
22.892,-2.190,3102
22.896,-2.212,3102
22.900,-2.035,3102
22.904,-1.700,3102
22.908,-1.222,3102
22.912,-0.708,3102
22.916,-0.177,3102
22.920,0.383,3102
22.924,0.890,3102
22.928,1.265,3113
22.932,1.472,3113
22.936,1.498,3113
22.940,1.323,3113
22.944,0.958,3113
22.948,0.510,3113
22.952,-0.013,3113
22.956,-0.542,3113
22.960,-1.692,3105
22.964,-2.212,3105
22.968,-2.243,3105
22.972,-2.065,3105
22.976,-1.732,3105
22.980,-1.262,3105
22.984,-0.743,3105
22.988,-0.212,3105
22.992,0.355,3105
22.996,0.865,3105
23.000,1.238,3150
23.004,1.458,3150
23.008,1.472,3150
23.012,1.300,3150
23.016,0.945,3150
23.020,0.472,3150
23.024,-0.043,3150
23.028,-0.575,3150
23.032,-1.133,3150
23.036,-1.655,3150
23.040,-2.223,3114
23.044,-2.047,3114
23.048,-1.712,3114
23.052,-1.250,3114
23.056,-0.738,3114
23.060,-0.203,3114
23.064,0.357,3114
23.068,0.877,3114
23.072,1.258,3107
23.076,1.468,3107
23.080,1.490,3107
23.084,1.323,3107
23.088,0.988,3107
23.092,0.515,3107
23.096,-0.015,3107
23.100,-0.560,3107
23.104,-1.123,3107
23.108,-1.650,3107
23.112,-2.027,3111
23.116,-2.243,3111
23.120,-2.047,3111
23.124,-1.768,3111
23.128,-1.292,3111
23.132,-0.748,3111
23.136,-0.212,3111
23.140,0.367,3111
23.144,0.887,3111
23.148,1.270,3119
23.152,1.492,3119
23.156,1.528,3119
23.160,1.343,3119
23.164,0.993,3119
23.168,0.527,3119
23.172,-0.007,3119
23.176,-0.547,3119
23.180,-1.127,3119
23.184,-1.647,3119
23.188,-2.022,3110
23.192,-2.223,3110
23.196,-2.250,3110
23.200,-1.673,3110
23.204,-1.255,3110
23.208,-0.757,3110
23.212,-0.223,3110
23.216,0.335,3110
23.220,0.873,3110
23.224,1.228,3137
23.228,1.452,3137
23.232,1.462,3137
23.236,1.295,3137
23.240,0.940,3137
23.244,0.465,3137
23.248,-0.033,3137
23.252,-0.568,3137
23.256,-1.130,3137
23.260,-1.647,3137
23.264,-2.027,3116
23.268,-2.217,3116
23.272,-2.228,3116
23.276,-2.055,3116
23.280,-1.163,3116
23.284,-0.733,3116
23.288,-0.182,3116
23.292,0.370,3116
23.296,0.887,3116
23.300,1.265,3102
23.304,1.482,3102
23.308,1.502,3102
23.312,1.337,3102
23.316,0.988,3102
23.320,0.525,3102
23.324,-0.010,3102
23.328,-0.545,3102
23.332,-1.103,3102
23.336,-1.630,3102
23.340,-2.010,3141
23.344,-2.212,3141
23.348,-2.243,3141
23.352,-2.085,3141
23.356,-1.742,3141
23.360,-0.672,3141
23.364,-0.217,3141
23.368,0.352,3141
23.372,0.865,3141
23.376,1.255,3136
23.380,1.468,3136
23.384,1.495,3136
23.388,1.312,3136
23.392,0.958,3136
23.396,0.502,3136
23.400,-0.018,3136
23.404,-0.562,3136
23.408,-1.127,3136
23.412,-1.643,3136
23.416,-2.020,3143
23.420,-2.223,3143
23.424,-2.255,3143
23.428,-2.095,3143
23.432,-1.762,3143
23.436,-1.302,3143
23.440,-0.135,3143
23.444,0.338,3143
23.448,0.858,3143
23.452,1.248,3128
23.456,1.462,3128
23.460,1.488,3128
23.464,1.323,3128
23.468,0.958,3128
23.472,0.502,3128
23.476,-0.022,3128
23.480,-0.568,3128
23.484,-1.133,3128
23.488,-1.657,3128
23.492,-2.033,3136
23.496,-2.248,3136
23.500,-2.260,3136
23.504,-2.085,3136
23.508,-1.728,3136
23.512,-1.242,3136
23.516,-0.723,3136
23.520,0.472,3136
23.524,0.892,3136
23.528,1.268,3133
23.532,1.472,3133
23.536,1.492,3133
23.540,1.310,3133
23.544,0.953,3133
23.548,0.475,3133
23.552,-0.050,3133
23.556,-0.595,3133
23.560,-1.163,3133
23.564,-1.673,3133
23.568,-2.042,3095
23.572,-2.230,3095
23.576,-2.248,3095
23.580,-2.058,3095
23.584,-1.712,3095
23.588,-1.252,3095
23.592,-0.733,3095
23.596,-0.188,3095
23.600,0.993,3095
23.604,1.272,3126
23.608,1.468,3126
23.612,1.482,3126
23.616,1.312,3126
23.620,0.955,3126
23.624,0.495,3126
23.628,-0.033,3126
23.632,-0.580,3126
23.636,-1.133,3126
23.640,-1.657,3126
23.644,-2.018,3141
23.648,-2.215,3141
23.652,-2.228,3141
23.656,-2.053,3141
23.660,-1.712,3141
23.664,-1.238,3141
23.668,-0.713,3141
23.672,-0.172,3141
23.676,0.388,3141
23.680,1.333,3126
23.684,1.498,3126
23.688,1.323,3126
23.692,0.978,3126
23.696,0.500,3126
23.700,-0.022,3126
23.704,-0.562,3126
23.708,-1.123,3126
23.712,-1.633,3126
23.716,-2.013,3115
23.720,-2.217,3115
23.724,-2.250,3115
23.728,-2.083,3115
23.732,-1.732,3115
23.736,-1.252,3115
23.740,-0.735,3115
23.744,-0.190,3115
23.748,0.372,3115
23.752,0.897,3115
23.756,1.272,3116
23.760,1.488,3116
23.764,1.317,3116
23.768,0.958,3116
23.772,0.497,3116
23.776,-0.043,3116
23.780,-0.583,3116
23.784,-1.147,3116
23.788,-1.663,3116
23.792,-2.033,3116
23.796,-2.217,3118
23.800,-2.243,3118
23.804,-2.055,3118
23.808,-1.708,3118
23.812,-1.232,3118
23.816,-0.708,3118
23.820,-0.168,3118
23.824,0.393,3118
23.828,0.910,3118
23.832,1.302,3118
23.836,1.490,3133
23.840,1.258,3133
23.844,0.887,3133
23.848,0.507,3133
23.852,-0.007,3133
23.856,-0.542,3133
23.860,-1.103,3133
23.864,-1.625,3133
23.868,-1.992,3133
23.872,-2.180,3128
23.876,-2.192,3128
23.880,-2.020,3128
23.884,-1.675,3128
23.888,-1.212,3128
23.892,-0.695,3128
23.896,-0.163,3128
23.900,0.395,3128
23.904,0.912,3128
23.908,1.308,3128
23.912,1.498,3119
23.916,1.518,3119
23.920,0.885,3119
23.924,0.470,3119
23.928,-0.142,3119
23.932,-0.603,3119
23.936,-1.140,3119
23.940,-1.655,3119
23.944,-2.025,3119
23.948,-2.210,3119
23.952,-2.217,3119
23.956,-2.042,3119
23.960,-1.700,3119
23.964,-1.222,3119
23.968,-0.698,3119
23.972,-0.163,3119
23.976,0.407,3119
23.980,0.917,3119
23.984,1.308,3119
23.988,1.498,3104
23.992,1.510,3104
23.996,1.330,3104
24.000,0.393,3104
24.004,-0.052,3104
24.008,-0.608,3104
24.012,-1.173,3104
24.016,-1.688,3104
24.020,-2.058,3104
24.024,-2.228,3110
24.028,-2.248,3110
24.032,-2.050,3110
24.036,-1.695,3110
24.040,-1.220,3110
24.044,-0.698,3110
24.048,-0.145,3110
24.052,0.420,3110
24.056,0.938,3110
24.060,1.325,3110
24.064,1.522,3112
24.068,1.538,3112
24.072,1.360,3112
24.076,1.022,3112
24.080,-0.072,3112
24.084,-0.537,3112
24.088,-1.103,3112
24.092,-1.630,3112
24.096,-2.018,3112
24.100,-2.205,3120
24.104,-2.217,3120
24.108,-2.035,3120
24.112,-1.702,3120
24.116,-1.228,3120
24.120,-0.713,3120
24.124,-0.182,3120
24.128,0.383,3120
24.132,0.897,3120
24.136,1.298,3120
24.140,1.492,3120
24.144,1.512,3120
24.148,1.343,3120
24.152,0.988,3120
24.156,0.522,3120
24.160,-0.650,3120
24.164,-1.145,3120
24.168,-1.645,3120
24.172,-2.018,3120
24.176,-2.212,3108
24.180,-2.217,3108
24.184,-2.047,3108
24.188,-1.702,3108
24.192,-1.232,3108
24.196,-0.710,3108
24.200,-0.177,3108
24.204,0.388,3108
24.208,0.897,3108
24.212,1.268,3108
24.216,1.462,3119
24.220,1.475,3119
24.224,1.308,3119
24.228,0.948,3119
24.232,0.477,3119
24.236,-0.043,3119
24.240,-1.228,3119
24.244,-1.660,3119
24.248,-2.033,3119
24.252,-2.217,3130
24.256,-2.248,3130
24.260,-2.062,3130
24.264,-1.710,3130
24.268,-1.235,3130
24.272,-0.723,3130
24.276,-0.180,3130
24.280,0.380,3130
24.284,0.887,3130
24.288,1.258,3130
24.292,1.458,3130
24.296,1.468,3130
24.300,1.268,3130
24.304,0.917,3130
24.308,0.455,3130
24.312,-0.072,3130
24.316,-0.613,3130
24.320,-1.748,3130
24.324,-2.050,3130
24.328,-2.245,3126
24.332,-2.255,3126
24.336,-2.067,3126
24.340,-1.722,3126
24.344,-1.255,3126
24.348,-0.733,3126
24.352,-0.182,3126
24.356,0.383,3126
24.360,0.897,3126
24.364,1.268,3126
24.368,1.478,3117
24.372,1.498,3117
24.376,1.315,3117
24.380,0.960,3117
24.384,0.507,3117
24.388,-0.018,3117
24.392,-0.583,3117
24.396,-1.123,3117
24.400,-2.047,3117
24.404,-2.185,3143
24.408,-2.192,3143
24.412,-2.018,3143
24.416,-1.655,3143
24.420,-1.202,3143
24.424,-0.682,3143
24.428,-0.138,3143
24.432,0.417,3143
24.436,0.917,3143
24.440,1.308,3143
24.444,1.492,3125
24.448,1.495,3125
24.452,1.312,3125
24.456,0.948,3125
24.460,0.475,3125
24.464,-0.050,3125
24.468,-0.593,3125
24.472,-1.160,3125
24.476,-1.665,3125
24.480,-2.263,3131
24.484,-2.007,3131
24.488,-1.673,3131
24.492,-1.205,3131
24.496,-0.672,3131
24.500,-0.133,3131
24.504,0.427,3131
24.508,0.948,3131
24.512,1.325,3131
24.516,1.505,3122
24.520,1.512,3122
24.524,1.333,3122
24.528,0.978,3122
24.532,0.500,3122
24.536,-0.033,3122
24.540,-0.588,3122
24.544,-1.163,3122
24.548,-1.683,3122
24.552,-2.058,3122
24.556,-2.243,3137
24.560,-2.018,3137
24.564,-1.712,3137
24.568,-1.232,3137
24.572,-0.713,3137
24.576,-0.177,3137
24.580,0.398,3137
24.584,0.910,3137
24.588,1.300,3137
24.592,1.488,3127
24.596,1.482,3127
24.600,1.298,3127
24.604,0.932,3127
24.608,0.463,3127
24.612,-0.062,3127
24.616,-0.608,3127
24.620,-1.167,3127
24.624,-1.667,3127
24.628,-2.027,3127
24.632,-2.212,3131
24.636,-2.225,3131
24.640,-1.633,3131
24.644,-1.215,3131
24.648,-0.647,3131
24.652,-0.177,3131
24.656,0.383,3131
24.660,0.885,3131
24.664,1.262,3131
24.668,1.468,3115
24.672,1.472,3115
24.676,1.302,3115
24.680,0.943,3115
24.684,0.495,3115
24.688,-0.028,3115
24.692,-0.578,3115
24.696,-1.143,3115
24.700,-1.663,3115
24.704,-2.030,3115
24.708,-2.217,3123
24.712,-2.248,3123
24.716,-2.058,3123
24.720,-1.167,3123
24.724,-0.652,3123
24.728,-0.170,3123
24.732,0.417,3123
24.736,0.902,3123
24.740,1.292,3123
24.744,1.482,3129
24.748,1.492,3129
24.752,1.312,3129
24.756,0.953,3129
24.760,0.477,3129
24.764,-0.043,3129
24.768,-0.588,3129
24.772,-1.143,3129
24.776,-1.688,3129
24.780,-2.027,3129
24.784,-2.210,3107
24.788,-2.223,3107
24.792,-2.047,3107
24.796,-1.708,3107
24.800,-0.642,3107
24.804,-0.182,3107
24.808,0.383,3107
24.812,0.897,3107
24.816,1.258,3107
24.820,1.478,3107
24.824,1.478,3124
24.828,1.292,3124
24.832,0.938,3124
24.836,0.465,3124
24.840,-0.048,3124
24.844,-0.588,3124
24.848,-1.150,3124
24.852,-1.663,3124
24.856,-2.022,3124
24.860,-2.197,3124
24.864,-2.210,3113
24.868,-2.022,3113
24.872,-1.690,3113
24.876,-1.212,3113
24.880,-0.062,3113
24.884,0.398,3113
24.888,0.900,3113
24.892,1.270,3113
24.896,1.468,3113
24.900,1.478,3116
24.904,1.272,3116
24.908,0.932,3116
24.912,0.460,3116
24.916,-0.062,3116
24.920,-0.613,3116
24.924,-1.173,3116
24.928,-1.688,3116
24.932,-2.053,3116
24.936,-2.248,3116
24.940,-2.263,3118
24.944,-2.083,3118
24.948,-1.728,3118
24.952,-1.250,3118
24.956,-0.728,3118
24.960,0.468,3118
24.964,0.907,3118
24.968,1.268,3118
24.972,1.468,3118
24.976,1.472,3101
24.980,1.265,3101
24.984,0.910,3101
24.988,0.438,3101
24.992,-0.087,3101
24.996,-0.620,3101
25.000,-1.180,3101
25.004,-1.692,3101
25.008,-2.058,3101
25.012,-2.248,3101
25.016,-2.252,3107
25.020,-2.062,3107
25.024,-1.712,3107
25.028,-1.248,3107
25.032,-0.728,3107
25.036,-0.182,3107
25.040,0.983,3107
25.044,1.275,3107
25.048,1.488,3107
25.052,1.498,3117
25.056,1.312,3117
25.060,0.950,3117
25.064,0.477,3117
25.068,-0.043,3117
25.072,-0.583,3117
25.076,-1.147,3117
25.080,-1.663,3117
25.084,-2.033,3117
25.088,-2.223,3117
25.092,-2.248,3114
25.096,-2.055,3114
25.100,-1.712,3114
25.104,-1.238,3114
25.108,-0.723,3114
25.112,-0.168,3114
25.116,0.388,3114
25.120,1.327,3114
25.124,1.468,3114
25.128,1.482,3119
25.132,1.298,3119
25.136,0.930,3119
25.140,0.455,3119
25.144,-0.068,3119
25.148,-0.615,3119
25.152,-1.177,3119
25.156,-1.688,3119
25.160,-2.047,3119
25.164,-2.228,3119
25.168,-2.223,3110
25.172,-2.035,3110
25.176,-1.698,3110
25.180,-1.222,3110
25.184,-0.698,3110
25.188,-0.128,3110
25.192,0.407,3110
25.196,0.910,3110
25.200,1.498,3110
25.204,1.498,3100
25.208,1.300,3100
25.212,0.932,3100
25.216,0.453,3100
25.220,-0.083,3100
25.224,-0.623,3100
25.228,-1.183,3100
25.232,-1.705,3100
25.236,-2.092,3100
25.240,-2.272,3100
25.244,-2.283,3117
25.248,-2.100,3117
25.252,-1.748,3117
25.256,-1.268,3117
25.260,-0.745,3117
25.264,-0.203,3117
25.268,0.367,3117
25.272,0.873,3117
25.276,1.252,3117
25.280,1.470,3132
25.284,0.917,3132
25.288,0.470,3132
25.292,-0.052,3132
25.296,-0.603,3132
25.300,-1.163,3132
25.304,-1.663,3132
25.308,-2.033,3132
25.312,-2.220,3132
25.316,-2.243,3122
25.320,-2.053,3122
25.324,-1.702,3122
25.328,-1.232,3122
25.332,-0.713,3122
25.336,-0.172,3122
25.340,0.388,3122
25.344,0.892,3122
25.348,1.258,3122
25.352,1.460,3122
25.356,1.468,3138
25.360,0.858,3138
25.364,0.453,3138
25.368,-0.068,3138
25.372,-0.610,3138
25.376,-1.167,3138
25.380,-1.683,3138
25.384,-2.047,3138
25.388,-2.228,3138
25.392,-2.250,3124
25.396,-2.053,3124
25.400,-1.710,3124
25.404,-1.220,3124
25.408,-0.698,3124
25.412,-0.150,3124
25.416,0.410,3124
25.420,0.917,3124
25.424,1.308,3124
25.428,1.490,3124
25.432,1.498,3145
25.436,1.308,3145
25.440,0.383,3145
25.444,-0.062,3145
25.448,-0.625,3145
25.452,-1.183,3145
25.456,-1.698,3145
25.460,-2.062,3145
25.464,-2.255,3145
25.468,-2.260,3122
25.472,-2.060,3122
25.476,-1.708,3122
25.480,-1.225,3122
25.484,-0.695,3122
25.488,-0.138,3122
25.492,0.422,3122
25.496,0.935,3122
25.500,1.327,3122
25.504,1.510,3122
25.508,1.515,3151
25.512,1.333,3151
25.516,0.983,3151
25.520,-0.110,3151
25.524,-0.578,3151
25.528,-1.143,3151
25.532,-1.663,3151
25.536,-2.027,3151
25.540,-2.212,3151
25.544,-2.212,3135
25.548,-2.022,3135
25.552,-1.660,3135
25.556,-1.210,3135
25.560,-0.682,3135
25.564,-0.138,3135
25.568,0.420,3135
25.572,0.927,3135
25.576,1.308,3135
25.580,1.500,3135
25.584,1.508,3132
25.588,1.308,3132
25.592,0.938,3132
25.596,0.468,3132
25.600,-0.700,3132
25.604,-1.165,3132
25.608,-1.670,3132
25.612,-2.035,3132
25.616,-2.217,3132
25.620,-2.228,3134
25.624,-2.030,3134
25.628,-1.688,3134
25.632,-1.210,3134
25.636,-0.688,3134
25.640,-0.140,3134
25.644,0.420,3134
25.648,0.927,3134
25.652,1.308,3134
25.656,1.492,3134
25.660,1.500,3122
25.664,1.302,3122
25.668,0.943,3122
25.672,0.465,3122
25.676,-0.060,3122
25.680,-1.258,3122
25.684,-1.683,3122
25.688,-2.047,3122
25.692,-2.212,3122
25.696,-2.208,3120
25.700,-2.022,3120
25.704,-1.683,3120
25.708,-1.192,3120
25.712,-0.672,3120
25.716,-0.138,3120
25.720,0.417,3120
25.724,0.925,3120
25.728,1.298,3120
25.732,1.472,3120
25.736,1.485,3116
25.740,1.268,3116
25.744,0.907,3116
25.748,0.438,3116
25.752,-0.092,3116
25.756,-0.645,3116
25.760,-1.782,3116
25.764,-2.098,3116
25.768,-2.248,3116
25.772,-2.243,3131
25.776,-2.042,3131
25.780,-1.688,3131
25.784,-1.205,3131
25.788,-0.688,3131
25.792,-0.140,3131
25.796,0.425,3131
25.800,0.935,3131
25.804,1.312,3131
25.808,1.498,3131
25.812,1.498,3114
25.816,1.302,3114
25.820,0.940,3114
25.824,0.468,3114
25.828,-0.048,3114
25.832,-0.588,3114
25.836,-1.153,3114
25.840,-2.085,3114
25.844,-2.217,3114
25.848,-2.228,3120
25.852,-2.042,3120
25.856,-1.695,3120
25.860,-1.215,3120
25.864,-0.690,3120
25.868,-0.138,3120
25.872,0.420,3120
25.876,0.930,3120
25.880,1.312,3120
25.884,1.508,3120
25.888,1.518,3120
25.892,1.337,3127
25.896,0.958,3127
25.900,0.492,3127
25.904,-0.140,3127
25.908,-0.588,3127
25.912,-1.140,3127
25.916,-1.655,3127
25.920,-2.208,3127
25.924,-2.212,3127
25.928,-2.027,3105
25.932,-1.683,3105
25.936,-1.205,3105
25.940,-0.650,3105
25.944,-0.133,3105
25.948,0.425,3105
25.952,0.938,3105
25.956,1.323,3105
25.960,1.508,3105
25.964,1.515,3105
25.968,1.335,3113
25.972,0.958,3113
25.976,0.512,3113
25.980,-0.018,3113
25.984,-0.565,3113
25.988,-1.130,3113
25.992,-1.650,3113
25.996,-2.018,3113
26.000,-2.192,3103
26.004,-1.698,3103
26.008,-1.232,3103
26.012,-0.713,3103
26.016,-0.177,3103
26.020,0.388,3103
26.024,0.902,3103
26.028,1.268,3103
26.032,1.468,3103
26.036,1.472,3103
26.040,1.268,3123
26.044,0.905,3123
26.048,0.430,3123
26.052,-0.098,3123
26.056,-0.652,3123
26.060,-1.208,3123
26.064,-1.712,3123
26.068,-2.083,3123
26.072,-2.252,3123
26.076,-2.257,3123
26.080,-1.643,3096
26.084,-0.672,3096
26.088,-0.145,3096
26.092,0.417,3096
26.096,0.935,3096
26.100,1.330,3096
26.104,1.510,3096
26.108,1.530,3096
26.112,1.340,3102
26.116,0.960,3102
26.120,0.507,3102
26.124,-0.033,3102
26.128,-0.578,3102
26.132,-1.145,3102
26.136,-1.667,3102
26.140,-2.047,3102
26.144,-2.223,3102
26.148,-2.248,3102
26.152,-2.047,3112
26.156,-1.683,3112
26.160,-0.585,3112
26.164,-0.128,3112
26.168,0.430,3112
26.172,0.943,3112
26.176,1.312,3112
26.180,1.495,3112
26.184,1.498,3112
26.188,1.292,3117
26.192,0.912,3117
26.196,0.438,3117
26.200,-0.090,3117
26.204,-0.642,3117
26.208,-1.192,3117
26.212,-1.702,3117
26.216,-2.060,3117
26.220,-2.230,3117
26.224,-2.243,3117
26.228,-2.045,3115
26.232,-1.688,3115
26.236,-1.212,3115
26.240,-0.058,3115
26.244,0.412,3115
26.248,0.920,3115
26.252,1.308,3115
26.256,1.495,3115
26.260,1.500,3115
26.264,1.308,3118
26.268,0.938,3118
26.272,0.470,3118
26.276,-0.048,3118
26.280,-0.595,3118
26.284,-1.167,3118
26.288,-1.673,3118
26.292,-2.033,3118
26.296,-2.217,3118
26.300,-2.225,3118
26.304,-2.045,3113
26.308,-1.692,3113
26.312,-1.208,3113
26.316,-0.690,3113
26.320,0.568,3113
26.324,0.945,3113
26.328,1.305,3113
26.332,1.482,3113
26.336,1.488,3113
26.340,1.292,3120
26.344,0.877,3120
26.348,0.425,3120
26.352,-0.098,3120
26.356,-0.650,3120
26.360,-1.208,3120
26.364,-1.722,3120
26.368,-2.095,3120
26.372,-2.265,3120
26.376,-2.272,3120
