Czas(s),EKG_Surowe(mV)
0.000,-0.460
0.004,0.015
0.008,0.525
0.012,0.912
0.016,1.153
0.020,1.218
0.024,1.117
0.028,0.900
0.032,0.573
0.036,0.158
0.040,-0.370
0.044,-0.940
0.048,-1.452
0.052,-1.883
0.056,-2.103
0.060,-2.163
0.064,-2.058
0.068,-1.827
0.072,-1.510
0.076,-1.093
0.080,0.092
0.084,0.557
0.088,1.147
0.092,1.192
0.096,1.093
0.100,0.868
0.104,0.542
0.108,0.128
0.112,-0.393
0.116,-0.973
0.120,-1.498
0.124,-1.893
0.128,-2.132
0.132,-2.185
0.136,-2.087
0.140,-1.855
0.144,-1.522
0.148,-1.103
0.152,-0.583
0.156,-0.028
0.160,0.948
0.164,1.208
0.168,1.103
0.172,0.887
0.176,0.542
0.180,0.180
0.184,-0.333
0.188,-0.897
0.192,-1.442
0.196,-1.860
0.200,-2.115
0.204,-2.183
0.208,-2.110
0.212,-1.895
0.216,-1.570
0.220,-1.170
0.224,-0.642
0.228,-0.070
0.232,0.463
0.236,0.875
0.240,1.215
0.244,1.137
0.248,0.910
0.252,0.593
0.256,0.190
0.260,-0.343
0.264,-0.927
0.268,-1.462
0.272,-1.870
0.276,-2.112
0.280,-2.178
0.284,-2.092
0.288,-1.860
0.292,-1.538
0.296,-1.127
0.300,-0.593
0.304,-0.030
0.308,0.507
0.312,0.907
0.316,1.157
0.320,1.113
0.324,0.912
0.328,0.593
0.332,0.182
0.336,-0.347
0.340,-0.915
0.344,-1.458
0.348,-1.860
0.352,-2.107
0.356,-2.167
0.360,-2.062
0.364,-1.843
0.368,-1.522
0.372,-1.093
0.376,-0.575
0.380,-0.015
0.384,0.517
0.388,0.912
0.392,1.153
0.396,1.222
0.400,0.863
0.404,0.588
0.408,0.177
0.412,-0.362
0.416,-0.927
0.420,-1.460
0.424,-1.865
0.428,-2.105
0.432,-2.172
0.436,-2.083
0.440,-1.857
0.444,-1.532
0.448,-1.123
0.452,-0.590
0.456,-0.005
0.460,0.522
0.464,0.927
0.468,1.177
0.472,1.235
0.476,1.153
0.480,0.537
0.484,0.177
0.488,-0.362
0.492,-0.932
0.496,-1.470
0.500,-1.873
0.504,-2.112
0.508,-2.178
0.512,-2.083
0.516,-1.850
0.520,-1.522
0.524,-1.105
0.528,-0.585
0.532,-0.020
0.536,0.500
0.540,0.905
0.544,1.145
0.548,1.220
0.552,1.117
0.556,0.910
0.560,0.100
0.564,-0.347
0.568,-0.907
0.572,-1.452
0.576,-1.857
0.580,-2.107
0.584,-2.170
0.588,-2.087
0.592,-1.857
0.596,-1.540
0.600,-1.133
0.604,-0.618
0.608,-0.052
0.612,0.470
0.616,0.868
0.620,1.133
0.624,1.188
0.628,1.093
0.632,0.873
0.636,0.547
0.640,-0.568
0.644,-0.980
0.648,-1.462
0.652,-2.123
0.656,-2.152
0.660,-2.058
0.664,-1.840
0.668,-1.508
0.672,-1.093
0.676,-0.578
0.680,-0.018
0.684,0.512
0.688,0.912
0.692,1.150
0.696,1.218
0.700,1.117
0.704,0.897
0.708,0.580
0.712,0.175
0.716,-0.350
0.720,-1.550
0.724,-2.107
0.728,-2.163
0.732,-2.047
0.736,-1.843
0.740,-1.510
0.744,-1.097
0.748,-0.580
0.752,-0.020
0.756,0.502
0.760,0.890
0.764,1.140
0.768,1.195
0.772,1.100
0.776,0.877
0.780,0.557
0.784,0.142
0.788,-0.372
0.792,-0.945
0.796,-1.482
0.800,-2.165
0.804,-2.098
0.808,-1.883
0.812,-1.528
0.816,-1.123
0.820,-0.593
0.824,-0.022
0.828,0.510
0.832,0.897
0.836,1.147
0.840,1.208
0.844,1.107
0.848,0.892
0.852,0.570
0.856,0.172
0.860,-0.347
0.864,-0.902
0.868,-1.425
0.872,-1.817
0.876,-2.062
0.880,-2.007
0.884,-1.768
0.888,-1.488
0.892,-1.095
0.896,-0.583
0.900,-0.030
0.904,0.497
0.908,0.887
0.912,1.143
0.916,1.198
0.920,1.107
0.924,0.895
0.928,0.573
0.932,0.158
0.936,-0.372
0.940,-0.938
0.944,-1.468
0.948,-1.865
0.952,-2.123
0.956,-2.178
0.960,-1.853
0.964,-1.452
0.968,-1.095
0.972,-0.605
0.976,-0.033
0.980,0.505
0.984,0.907
0.988,1.167
0.992,1.232
0.996,1.147
1.000,0.917
1.004,0.595
1.008,0.205
1.012,-0.325
1.016,-0.895
1.020,-1.423
1.024,-1.843
1.028,-2.090
1.032,-2.147
1.036,-2.060
1.040,-1.472
1.044,-1.127
1.048,-0.608
1.052,-0.052
1.056,0.472
1.060,0.870
1.064,1.137
1.068,1.208
1.072,1.113
1.076,0.902
1.080,0.588
1.084,0.188
1.088,-0.333
1.092,-0.905
1.096,-1.440
1.100,-1.827
1.104,-2.067
1.108,-2.140
1.112,-2.047
1.116,-1.827
1.120,-1.048
1.124,-0.560
1.128,0.013
1.132,0.502
1.136,0.897
1.140,1.147
1.144,1.218
1.148,1.133
1.152,0.907
1.156,0.585
1.160,0.195
1.164,-0.338
1.168,-0.897
1.172,-1.423
1.176,-1.825
1.180,-2.083
1.184,-2.143
1.188,-2.047
1.192,-1.827
1.196,-1.500
1.200,-0.482
1.204,0.013
1.208,0.527
1.212,0.927
1.216,1.180
1.220,1.248
1.224,1.150
1.228,0.932
1.232,0.610
1.236,0.207
1.240,-0.305
1.244,-0.885
1.248,-1.420
1.252,-1.833
1.256,-2.092
1.260,-2.163
1.264,-2.083
1.268,-1.857
1.272,-1.528
1.276,-1.125
1.280,0.072
1.284,0.497
1.288,0.890
1.292,1.143
1.296,1.212
1.300,1.113
1.304,0.900
1.308,0.580
1.312,0.180
1.316,-0.343
1.320,-0.907
1.324,-1.442
1.328,-1.843
1.332,-2.098
1.336,-2.147
1.340,-2.053
1.344,-1.827
1.348,-1.508
1.352,-1.103
1.356,-0.593
1.360,0.552
1.364,0.940
1.368,1.205
1.372,1.115
1.376,0.907
1.380,0.595
1.384,0.198
1.388,-0.323
1.392,-0.885
1.396,-1.417
1.400,-1.830
1.404,-2.095
1.408,-2.165
1.412,-2.067
1.416,-1.853
1.420,-1.532
1.424,-1.127
1.428,-0.613
1.432,-0.052
1.436,0.472
1.440,1.167
1.444,1.133
1.448,0.907
1.452,0.590
1.456,0.198
1.460,-0.333
1.464,-0.897
1.468,-1.427
1.472,-1.840
1.476,-2.095
1.480,-2.167
1.484,-2.083
1.488,-1.863
1.492,-1.548
1.496,-1.137
1.500,-0.618
1.504,-0.050
1.508,0.502
1.512,0.912
1.516,1.173
1.520,1.133
1.524,0.885
1.528,0.610
1.532,0.215
1.536,-0.300
1.540,-0.873
1.544,-1.410
1.548,-1.817
1.552,-2.083
1.556,-2.150
1.560,-2.053
1.564,-1.845
1.568,-1.522
1.572,-1.107
1.576,-0.603
1.580,-0.045
1.584,0.537
1.588,0.907
1.592,1.147
1.596,1.220
1.600,0.863
1.604,0.588
1.608,0.142
1.612,-0.482
1.616,-0.932
1.620,-1.452
1.624,-1.855
1.628,-2.123
1.632,-2.172
1.636,-2.083
1.640,-1.860
1.644,-1.535
1.648,-1.125
1.652,-0.593
1.656,-0.033
1.660,0.507
1.664,0.907
1.668,1.163
1.672,1.232
1.676,1.147
1.680,0.540
1.684,0.190
1.688,-0.343
1.692,-0.902
1.696,-1.448
1.700,-1.853
1.704,-2.112
1.708,-2.178
1.712,-2.103
1.716,-1.873
1.720,-1.552
1.724,-1.140
1.728,-0.627
1.732,-0.062
1.736,0.465
1.740,0.882
1.744,1.147
1.748,1.220
1.752,1.137
1.756,0.917
1.760,0.115
1.764,-0.422
1.768,-0.902
1.772,-1.440
1.776,-1.847
1.780,-2.105
1.784,-2.183
1.788,-2.098
1.792,-1.875
1.796,-1.558
1.800,-1.145
1.804,-0.623
1.808,-0.055
1.812,0.497
1.816,0.897
1.820,1.163
1.824,1.232
1.828,1.147
1.832,0.927
1.836,0.600
1.840,-0.422
1.844,-0.902
1.848,-1.448
1.852,-1.847
1.856,-2.098
1.860,-2.172
1.864,-2.092
1.868,-1.870
1.872,-1.548
1.876,-1.143
1.880,-0.618
1.884,-0.052
1.888,0.500
1.892,0.902
1.896,1.167
1.900,1.248
1.904,1.170
1.908,0.953
1.912,0.635
1.916,0.242
1.920,-0.965
1.924,-1.410
1.928,-1.827
1.932,-2.098
1.936,-2.178
1.940,-2.092
1.944,-1.873
1.948,-1.562
1.952,-1.143
1.956,-0.623
1.960,-0.062
1.964,0.465
1.968,0.873
1.972,1.137
1.976,1.208
1.980,1.115
1.984,0.907
1.988,0.583
1.992,0.193
1.996,-0.323
2.000,-1.490
2.004,-1.825
2.008,-2.085
2.012,-2.152
2.016,-2.053
2.020,-1.830
2.024,-1.510
2.028,-1.103
2.032,-0.593
2.036,-0.043
2.040,0.497
2.044,0.882
2.048,1.145
2.052,1.212
2.056,1.115
2.060,0.892
2.064,0.575
2.068,0.175
2.072,-0.352
2.076,-0.927
2.080,-1.903
2.084,-2.185
2.088,-2.105
2.092,-1.887
2.096,-1.562
2.100,-1.153
2.104,-0.647
2.108,-0.072
2.112,0.460
2.116,0.868
2.120,1.133
2.124,1.218
2.128,1.117
2.132,0.915
2.136,0.598
2.140,0.207
2.144,-0.323
2.148,-0.890
2.152,-1.425
2.156,-1.843
2.160,-2.178
2.164,-1.850
2.168,-1.555
2.172,-1.150
2.176,-0.647
2.180,-0.072
2.184,0.448
2.188,0.858
2.192,1.110
2.196,1.208
2.200,1.117
2.204,0.912
2.208,0.598
2.212,0.193
2.216,-0.330
2.220,-0.897
2.224,-1.442
2.228,-1.843
2.232,-2.098
2.236,-2.178
2.240,-1.833
2.244,-1.552
2.248,-1.150
2.252,-0.645
2.256,-0.072
2.260,0.458
2.264,0.863
2.268,1.113
2.272,1.208
2.276,1.113
2.280,0.907
2.284,0.593
2.288,0.198
2.292,-0.323
2.296,-0.890
2.300,-1.413
2.304,-1.820
2.308,-2.083
2.312,-2.152
2.316,-2.062
2.320,-1.488
2.324,-1.137
2.328,-0.623
2.332,-0.068
2.336,0.463
2.340,0.873
2.344,1.140
2.348,1.215
2.352,1.133
2.356,0.900
2.360,0.600
2.364,0.217
2.368,-0.305
2.372,-0.887
2.376,-1.417
2.380,-1.843
2.384,-2.087
2.388,-2.163
2.392,-2.085
2.396,-1.853
2.400,-1.052
2.404,-0.015
2.408,0.472
2.412,0.887
2.416,1.147
2.420,1.228
2.424,1.150
2.428,0.938
2.432,0.615
2.436,0.223
2.440,-0.287
2.444,-0.860
2.448,-1.393
2.452,-1.802
2.456,-2.058
2.460,-2.145
2.464,-2.083
2.468,-1.870
2.472,-1.562
2.476,-1.163
2.480,0.018
2.484,0.435
2.488,0.853
2.492,1.107
2.496,1.195
2.500,1.113
2.504,0.912
2.508,0.588
2.512,0.207
2.516,-0.302
2.520,-0.868
2.524,-1.403
2.528,-1.810
2.532,-2.053
2.536,-2.143
2.540,-2.060
2.544,-1.863
2.548,-1.542
2.552,-1.143
2.556,-0.647
2.560,0.537
2.564,0.870
2.568,1.155
2.572,1.220
2.576,1.145
2.580,0.935
2.584,0.618
2.588,0.217
2.592,-0.302
2.596,-0.892
2.600,-1.423
2.604,-1.833
2.608,-2.098
2.612,-2.178
2.616,-2.098
2.620,-1.875
2.624,-1.552
2.628,-1.147
2.632,-0.642
2.636,-0.068
2.640,0.930
2.644,1.147
2.648,1.228
2.652,1.143
2.656,0.912
2.660,0.593
2.664,0.198
2.668,-0.323
2.672,-0.887
2.676,-1.417
2.680,-1.823
2.684,-2.085
2.688,-2.165
2.692,-2.090
2.696,-1.870
2.700,-1.550
2.704,-1.143
2.708,-0.625
2.712,-0.068
2.716,0.463
2.720,1.170
2.724,1.147
2.728,0.935
2.732,0.623
2.736,0.228
2.740,-0.305
2.744,-0.850
2.748,-1.387
2.752,-1.802
2.756,-2.060
2.760,-2.147
2.764,-2.058
2.768,-1.847
2.772,-1.528
2.776,-1.133
2.780,-0.610
2.784,-0.052
2.788,0.492
2.792,0.897
2.796,1.145
2.800,1.093
2.804,0.863
2.808,0.578
2.812,0.212
2.816,-0.302
2.820,-0.880
2.824,-1.413
2.828,-1.825
2.832,-2.092
2.836,-2.178
2.840,-2.103
2.844,-1.883
2.848,-1.562
2.852,-1.153
2.856,-0.645
2.860,-0.072
2.864,0.455
2.868,0.873
2.872,1.137
2.876,1.215
2.880,0.882
2.884,0.618
2.888,0.230
2.892,-0.285
2.896,-0.858
2.900,-1.397
2.904,-1.815
2.908,-2.087
2.912,-2.167
2.916,-2.090
2.920,-1.873
2.924,-1.562
2.928,-1.147
2.932,-0.640
2.936,-0.062
2.940,0.468
2.944,0.887
2.948,1.140
2.952,1.218
2.956,1.143
2.960,0.547
2.964,0.215
2.968,-0.302
2.972,-0.887
2.976,-1.415
2.980,-1.823
2.984,-2.098
2.988,-2.172
2.992,-2.098
2.996,-1.867
3.000,-1.542
3.004,-1.143
3.008,-0.623
3.012,-0.068
3.016,0.463
3.020,0.873
3.024,1.133
3.028,1.218
3.032,1.133
3.036,0.912
3.040,0.120
3.044,-0.323
3.048,-0.892
3.052,-1.427
3.056,-1.845
3.060,-2.112
3.064,-2.188
3.068,-2.110
3.072,-1.893
3.076,-1.573
3.080,-1.167
3.084,-0.660
3.088,-0.098
3.092,0.435
3.096,0.850
3.100,1.107
3.104,1.198
3.108,1.107
3.112,0.907
3.116,0.593
3.120,-0.412
3.124,-0.895
3.128,-1.465
3.132,-1.857
3.136,-2.125
3.140,-2.205
3.144,-2.125
3.148,-1.907
3.152,-1.573
3.156,-1.183
3.160,-0.682
3.164,-0.107
3.168,0.425
3.172,0.833
3.176,1.100
3.180,1.183
3.184,1.097
3.188,0.885
3.192,0.568
3.196,0.177
3.200,-1.002
3.204,-1.442
3.208,-1.853
3.212,-2.103
3.216,-2.178
3.220,-2.098
3.224,-1.883
3.228,-1.552
3.232,-1.163
3.236,-0.655
3.240,-0.087
3.244,0.450
3.248,0.860
3.252,1.117
3.256,1.212
3.260,1.143
3.264,0.917
3.268,0.610
3.272,0.212
3.276,-0.292
3.280,-1.488
3.284,-1.865
3.288,-2.070
3.292,-2.152
3.296,-2.083
3.300,-1.860
3.304,-1.542
3.308,-1.147
3.312,-0.647
3.316,-0.090
3.320,0.450
3.324,0.858
3.328,1.113
3.332,1.192
3.336,1.103
3.340,0.902
3.344,0.593
3.348,0.207
3.352,-0.307
3.356,-0.887
3.360,-1.895
3.364,-2.100
3.368,-2.192
3.372,-2.123
3.376,-1.893
3.380,-1.577
3.384,-1.177
3.388,-0.672
3.392,-0.113
3.396,0.422
3.400,0.838
3.404,1.095
3.408,1.180
3.412,1.107
3.416,0.902
3.420,0.603
3.424,0.220
3.428,-0.285
3.432,-0.855
3.436,-1.393
3.440,-2.103
3.444,-2.163
3.448,-2.087
3.452,-1.873
3.456,-1.565
3.460,-1.173
3.464,-0.680
3.468,-0.113
3.472,0.422
3.476,0.848
3.480,1.100
3.484,1.192
3.488,1.113
3.492,0.907
3.496,0.595
3.500,0.203
3.504,-0.328
3.508,-0.887
3.512,-1.417
3.516,-1.827
3.520,-2.172
3.524,-1.887
3.528,-1.573
3.532,-1.177
3.536,-0.282
3.540,0.425
3.544,0.850
3.548,1.103
3.552,1.195
3.556,1.110
3.560,0.902
3.564,0.593
3.568,0.210
3.572,-0.300
3.576,-0.882
3.580,-1.417
3.584,-1.833
3.588,-2.095
3.592,-2.172
3.596,-2.092
3.600,-1.485
3.604,-1.137
3.608,-0.613
3.612,-0.058
3.616,0.497
3.620,0.907
3.624,1.173
3.628,1.258
3.632,1.173
3.636,0.955
3.640,0.637
3.644,0.258
3.648,-0.263
3.652,-0.973
3.656,-1.383
3.660,-1.805
3.664,-2.083
3.668,-2.167
3.672,-2.098
3.676,-1.887
3.680,-1.090
3.684,-0.657
3.688,-0.092
3.692,0.438
3.696,0.860
3.700,1.117
3.704,1.222
3.708,1.143
3.712,0.943
3.716,0.632
3.720,0.247
3.724,-0.260
3.728,-0.828
3.732,-1.373
3.736,-1.788
3.740,-2.042
3.744,-2.132
3.748,-2.053
3.752,-1.847
3.756,-1.528
3.760,-0.532
3.764,-0.048
3.768,0.552
3.772,0.887
3.776,1.153
3.780,1.192
3.784,1.110
3.788,0.910
3.792,0.608
3.796,0.225
3.800,-0.282
3.804,-0.863
3.808,-1.403
3.812,-1.817
3.816,-2.085
3.820,-2.170
3.824,-2.103
3.828,-1.893
3.832,-1.577
3.836,-1.175
3.840,-0.007
3.844,0.453
3.848,0.873
3.852,1.147
3.856,1.228
3.860,1.143
3.864,0.927
3.868,0.613
3.872,0.228
3.876,-0.287
3.880,-0.863
3.884,-1.407
3.888,-1.830
3.892,-2.098
3.896,-2.180
3.900,-2.112
3.904,-1.887
3.908,-1.583
3.912,-1.190
3.916,-0.682
3.920,0.527
3.924,0.887
3.928,1.163
3.932,1.212
3.936,1.133
3.940,0.927
3.944,0.608
3.948,0.217
3.952,-0.292
3.956,-0.863
3.960,-1.407
3.964,-1.823
3.968,-2.087
3.972,-2.172
3.976,-2.107
3.980,-1.887
3.984,-1.577
3.988,-1.183
3.992,-0.682
3.996,-0.107
4.000,0.892
4.004,1.100
4.008,1.192
4.012,1.117
4.016,0.910
4.020,0.610
4.024,0.225
4.028,-0.297
4.032,-0.853
4.036,-1.393
4.040,-1.810
4.044,-2.062
4.048,-2.167
4.052,-2.095
4.056,-1.883
4.060,-1.573
4.064,-1.167
4.068,-0.665
4.072,-0.107
4.076,0.427
4.080,1.137
4.084,1.202
4.088,1.117
4.092,0.912
4.096,0.613
4.100,0.225
4.104,-0.285
4.108,-0.850
4.112,-1.387
4.116,-1.802
4.120,-2.065
4.124,-2.163
4.128,-2.087
4.132,-1.873
4.136,-1.570
4.140,-1.173
4.144,-0.682
4.148,-0.115
4.152,0.420
4.156,0.828
4.160,1.188
4.164,0.865
4.168,0.545
4.172,0.182
4.176,-0.338
4.180,-0.902
4.184,-1.420
4.188,-1.857
4.192,-2.123
4.196,-2.208
4.200,-2.127
4.204,-1.907
4.208,-1.583
4.212,-1.180
4.216,-0.682
4.220,-0.113
4.224,0.430
4.228,0.858
4.232,1.133
4.236,1.218
4.240,0.897
4.244,0.247
4.248,-0.263
4.252,-0.843
4.256,-1.377
4.260,-1.802
4.264,-2.065
4.268,-2.178
4.272,-2.100
4.276,-1.890
4.280,-1.577
4.284,-1.153
4.288,-0.667
4.292,-0.113
4.296,0.427
4.300,0.843
4.304,1.105
4.308,1.208
4.312,1.133
4.316,0.927
4.320,0.188
4.324,-0.247
4.328,-0.818
4.332,-1.347
4.336,-1.780
4.340,-2.047
4.344,-2.147
4.348,-2.087
4.352,-1.873
4.356,-1.577
4.360,-1.185
4.364,-0.682
4.368,-0.117
4.372,0.417
4.376,0.838
4.380,1.105
4.384,1.198
4.388,1.143
4.392,0.930
4.396,0.627
4.400,-0.352
4.404,-0.828
4.408,-1.373
4.412,-1.792
4.416,-2.062
4.420,-2.167
4.424,-2.095
4.428,-1.885
4.432,-1.573
4.436,-1.177
4.440,-0.672
4.444,-0.110
4.448,0.425
4.452,0.833
4.456,1.093
4.460,1.183
4.464,1.107
4.468,0.902
4.472,0.608
4.476,0.223
4.480,-0.922
4.484,-1.375
4.488,-1.788
4.492,-2.047
4.496,-2.147
4.500,-2.087
4.504,-1.875
4.508,-1.573
4.512,-1.173
4.516,-0.670
4.520,-0.107
4.524,0.435
4.528,0.860
4.532,1.133
4.536,1.220
4.540,1.147
4.544,0.927
4.548,0.613
4.552,0.217
4.556,-0.297
4.560,-1.498
4.564,-1.827
4.568,-2.107
4.572,-2.190
4.576,-2.123
4.580,-1.907
4.584,-1.613
4.588,-1.212
4.592,-0.703
4.596,-0.138
4.600,0.398
4.604,0.830
4.608,1.103
4.612,1.212
4.616,1.143
4.620,0.938
4.624,0.625
4.628,0.237
4.632,-0.263
4.636,-0.833
4.640,-1.863
4.644,-2.067
4.648,-2.167
4.652,-2.098
4.656,-1.883
4.660,-1.577
4.664,-1.185
4.668,-0.693
4.672,-0.130
4.676,0.432
4.680,0.828
4.684,1.093
4.688,1.198
4.692,1.143
4.696,0.932
4.700,0.623
4.704,0.253
4.708,-0.253
4.712,-0.823
4.716,-1.363
4.720,-2.092
4.724,-2.152
4.728,-2.085
4.732,-1.867
4.736,-1.555
4.740,-1.173
4.744,-0.682
4.748,-0.113
4.752,0.427
4.756,0.848
4.760,1.133
4.764,1.218
4.768,1.157
4.772,0.943
4.776,0.637
4.780,0.260
4.784,-0.242
4.788,-0.807
4.792,-1.353
4.796,-1.792
4.800,-2.150
4.804,-2.092
4.808,-1.887
4.812,-1.580
4.816,-1.190
4.820,-0.693
4.824,-0.133
4.828,0.417
4.832,0.833
4.836,1.103
4.840,1.212
4.844,1.140
4.848,0.915
4.852,0.618
4.856,0.220
4.860,-0.287
4.864,-0.850
4.868,-1.387
4.872,-1.820
4.876,-2.100
4.880,-2.098
4.884,-1.567
4.888,-1.212
4.892,-0.647
4.896,-0.133
4.900,0.412
4.904,0.835
4.908,1.103
4.912,1.212
4.916,1.140
4.920,0.912
4.924,0.593
4.928,0.207
4.932,-0.305
4.936,-0.868
4.940,-1.423
4.944,-1.847
4.948,-2.123
4.952,-2.203
4.956,-2.127
4.960,-1.548
4.964,-1.212
4.968,-0.705
4.972,-0.142
4.976,0.393
4.980,0.818
4.984,1.093
4.988,1.192
4.992,1.117
4.996,0.905
5.000,0.598
5.004,0.220
5.008,-0.292
5.012,-0.858
5.016,-1.387
5.020,-1.808
5.024,-2.067
5.028,-2.163
5.032,-2.083
5.036,-1.870
5.040,-1.097
5.044,-0.682
5.048,-0.128
5.052,0.417
5.056,0.830
5.060,1.107
5.064,1.208
5.068,1.137
5.072,0.927
5.076,0.608
5.080,0.223
5.084,-0.302
5.088,-0.860
5.092,-1.403
5.096,-1.823
5.100,-2.092
5.104,-2.172
5.108,-2.107
5.112,-1.900
5.116,-1.583
5.120,-0.610
5.124,-0.142
5.128,0.400
5.132,0.828
5.136,1.097
5.140,1.212
5.144,1.153
5.148,0.948
5.152,0.635
5.156,0.263
5.160,-0.247
5.164,-0.818
5.168,-1.363
5.172,-1.792
5.176,-2.055
5.180,-2.160
5.184,-2.090
5.188,-1.883
5.192,-1.567
5.196,-1.188
5.200,-0.050
5.204,0.393
5.208,0.825
5.212,1.093
5.216,1.205
5.220,1.137
5.224,0.932
5.228,0.620
5.232,0.235
5.236,-0.268
5.240,-0.833
5.244,-1.377
5.248,-1.808
5.252,-2.083
5.256,-2.172
5.260,-2.103
5.264,-1.903
5.268,-1.577
5.272,-1.192
5.276,-0.703
5.280,0.472
5.284,0.823
5.288,1.100
5.292,1.198
5.296,1.133
5.300,0.912
5.304,0.598
5.308,0.233
5.312,-0.280
5.316,-0.853
5.320,-1.387
5.324,-1.820
5.328,-2.095
5.332,-2.185
5.336,-2.125
5.340,-1.927
5.344,-1.603
5.348,-1.208
5.352,-0.705
5.356,-0.142
5.360,0.868
5.364,1.090
5.368,1.202
5.372,1.140
5.376,0.943
5.380,0.627
5.384,0.258
5.388,-0.247
5.392,-0.818
5.396,-1.367
5.400,-1.785
5.404,-2.047
5.408,-2.147
5.412,-2.087
5.416,-1.877
5.420,-1.548
5.424,-1.188
5.428,-0.693
5.432,-0.125
5.436,0.417
5.440,1.145
5.444,1.212
5.448,1.157
5.452,0.948
5.456,0.652
5.460,0.263
5.464,-0.253
5.468,-0.820
5.472,-1.375
5.476,-1.808
5.480,-2.083
5.484,-2.175
5.488,-2.112
5.492,-1.933
5.496,-1.613
5.500,-1.222
5.504,-0.713
5.508,-0.160
5.512,0.398
5.516,0.828
5.520,1.210
5.524,1.140
5.528,0.940
5.532,0.623
5.536,0.247
5.540,-0.260
5.544,-0.838
5.548,-1.387
5.552,-1.817
5.556,-2.090
5.560,-2.178
5.564,-2.107
5.568,-1.897
5.572,-1.577
5.576,-1.183
5.580,-0.693
5.584,-0.133
5.588,0.407
5.592,0.828
5.596,1.095
5.600,1.103
5.604,0.920
5.608,0.618
5.612,0.237
5.616,-0.268
5.620,-0.840
5.624,-1.380
5.628,-1.808
5.632,-2.087
5.636,-2.183
5.640,-2.130
5.644,-1.933
5.648,-1.623
5.652,-1.230
5.656,-0.738
5.660,-0.172
5.664,0.378
5.668,0.815
5.672,1.097
5.676,1.212
5.680,0.915
5.684,0.270
5.688,-0.223
5.692,-0.780
5.696,-1.333
5.700,-1.768
5.704,-2.045
5.708,-2.147
5.712,-2.092
5.716,-1.887
5.720,-1.583
5.724,-1.202
5.728,-0.705
5.732,-0.142
5.736,0.393
5.740,0.818
5.744,1.087
5.748,1.188
5.752,1.133
5.756,0.932
5.760,0.175
5.764,-0.253
5.768,-0.823
5.772,-1.363
5.776,-1.788
5.780,-2.060
5.784,-2.167
5.788,-2.110
5.792,-1.907
5.796,-1.613
5.800,-1.222
5.804,-0.715
5.808,-0.165
5.812,0.385
5.816,0.797
5.820,1.087
5.824,1.188
5.828,1.137
5.832,0.930
5.836,0.627
5.840,-0.323
5.844,-0.802
5.848,-1.335
5.852,-1.762
5.856,-2.033
5.860,-2.140
5.864,-2.067
5.868,-1.883
5.872,-1.577
5.876,-1.205
5.880,-0.700
5.884,-0.142
5.888,0.398
5.892,0.828
5.896,1.103
5.900,1.208
5.904,1.153
5.908,0.945
5.912,0.632
5.916,0.258
5.920,-0.897
5.924,-1.350
5.928,-1.778
5.932,-2.053
5.936,-2.167
5.940,-2.103
5.944,-1.900
5.948,-1.613
5.952,-1.212
5.956,-0.713
5.960,-0.163
5.964,0.388
5.968,0.823
5.972,1.093
5.976,1.208
5.980,1.147
5.984,0.948
5.988,0.635
5.992,0.265
5.996,-0.242
6.000,-1.448
6.004,-1.792
6.008,-2.062
6.012,-2.175
6.016,-2.105
6.020,-1.903
6.024,-1.607
6.028,-1.210
6.032,-0.713
6.036,-0.168
6.040,0.378
6.044,0.812
6.048,1.077
6.052,1.208
6.056,1.143
6.060,0.945
6.064,0.637
6.068,0.265
6.072,-0.228
6.076,-0.782
6.080,-1.823
6.084,-2.047
6.088,-2.163
6.092,-2.098
6.096,-1.897
6.100,-1.603
6.104,-1.200
6.108,-0.708
6.112,-0.147
6.116,0.398
6.120,0.828
6.124,1.107
6.128,1.212
6.132,1.147
6.136,0.948
6.140,0.637
6.144,0.245
6.148,-0.258
6.152,-0.835
6.156,-1.380
6.160,-2.123
6.164,-2.185
6.168,-2.127
6.172,-1.933
6.176,-1.623
6.180,-1.218
6.184,-0.723
6.188,-0.163
6.192,0.398
6.196,0.843
6.200,1.117
6.204,1.228
6.208,1.177
6.212,0.983
6.216,0.685
6.220,0.297
6.224,-0.193
6.228,-0.802
6.232,-1.327
6.236,-1.762
6.240,-2.163
6.244,-2.103
6.248,-1.920
6.252,-1.583
6.256,-1.222
6.260,-0.733
6.264,-0.172
6.268,0.383
6.272,0.818
6.276,1.100
6.280,1.218
6.284,1.167
6.288,0.958
6.292,0.667
6.296,0.275
6.300,-0.212
6.304,-0.770
6.308,-1.323
6.312,-1.762
6.316,-2.042
6.320,-2.080
6.324,-1.907
6.328,-1.607
6.332,-1.208
6.336,-0.723
6.340,-0.168
6.344,0.383
6.348,0.812
6.352,1.093
6.356,1.198
6.360,1.137
6.364,0.940
6.368,0.632
6.372,0.253
6.376,-0.242
6.380,-0.805
6.384,-1.350
6.388,-1.772
6.392,-2.050
6.396,-2.167
6.400,-1.867
6.404,-1.617
6.408,-1.218
6.412,-0.738
6.416,-0.172
6.420,0.383
6.424,0.823
6.428,1.103
6.432,1.222
6.436,1.173
6.440,0.988
6.444,0.682
6.448,0.302
6.452,-0.193
6.456,-0.752
6.460,-1.312
6.464,-1.728
6.468,-2.025
6.472,-2.140
6.476,-2.087
6.480,-1.540
6.484,-0.708
6.488,0.398
6.492,0.782
6.496,1.073
6.500,1.188
6.504,1.140
6.508,0.948
6.512,0.667
6.516,0.263
6.520,-0.228
6.524,-0.775
6.528,-1.333
6.532,-1.768
6.536,-2.045
6.540,-2.147
6.544,-2.098
6.548,-1.897
6.552,-1.613
6.556,-1.218
6.560,-0.072
6.564,0.383
6.568,0.823
6.572,1.113
6.576,1.238
6.580,1.183
6.584,0.985
6.588,0.685
6.592,0.287
6.596,-0.210
6.600,-0.777
6.604,-1.340
6.608,-1.788
6.612,-2.090
6.616,-2.192
6.620,-2.138
6.624,-1.945
6.628,-1.640
6.632,-1.232
6.636,-0.728
6.640,0.448
6.644,0.812
6.648,1.097
6.652,1.218
6.656,1.177
6.660,0.983
6.664,0.690
6.668,0.290
6.672,-0.203
6.676,-0.762
6.680,-1.327
6.684,-1.762
6.688,-2.042
6.692,-2.152
6.696,-2.103
6.700,-1.900
6.704,-1.613
6.708,-1.208
6.712,-0.728
6.716,-0.168
6.720,0.858
6.724,1.077
6.728,1.188
6.732,1.133
6.736,0.938
6.740,0.637
6.744,0.255
6.748,-0.247
6.752,-0.785
6.756,-1.345
6.760,-1.782
6.764,-2.062
6.768,-2.172
6.772,-2.127
6.776,-1.933
6.780,-1.623
6.784,-1.222
6.788,-0.738
6.792,-0.177
6.796,0.380
6.800,1.137
6.804,1.222
6.808,1.177
6.812,0.998
6.816,0.710
6.820,0.333
6.824,-0.168
6.828,-0.728
6.832,-1.288
6.836,-1.718
6.840,-2.022
6.844,-2.143
6.848,-2.103
6.852,-1.923
6.856,-1.623
6.860,-1.232
6.864,-0.748
6.868,-0.185
6.872,0.367
6.876,0.792
6.880,1.208
6.884,1.153
6.888,0.958
6.892,0.672
6.896,0.290
6.900,-0.203
6.904,-0.767
6.908,-1.325
6.912,-1.765
6.916,-2.042
6.920,-2.163
6.924,-2.103
6.928,-1.903
6.932,-1.613
6.936,-1.218
6.940,-0.748
6.944,-0.193
6.948,0.350
6.952,0.780
6.956,1.075
6.960,1.113
6.964,0.948
6.968,0.667
6.972,0.275
6.976,-0.217
6.980,-0.777
6.984,-1.325
6.988,-1.768
6.992,-2.033
6.996,-2.152
7.000,-2.103
7.004,-1.903
7.008,-1.615
7.012,-1.222
7.016,-0.740
7.020,-0.182
7.024,0.390
7.028,0.797
7.032,1.097
7.036,1.220
7.040,0.932
7.044,0.672
7.048,0.287
7.052,-0.207
7.056,-0.770
7.060,-1.333
7.064,-1.772
7.068,-2.062
7.072,-2.183
7.076,-2.132
7.080,-1.942
7.084,-1.643
7.088,-1.248
7.092,-0.752
7.096,-0.182
7.100,0.370
7.104,0.792
7.108,1.087
7.112,1.208
7.116,1.150
7.120,0.598
7.124,-0.228
7.128,-0.810
7.132,-1.363
7.136,-1.805
7.140,-2.092
7.144,-2.192
7.148,-2.138
7.152,-1.935
7.156,-1.623
7.160,-1.225
7.164,-0.728
7.168,-0.168
7.172,0.393
7.176,0.828
7.180,1.113
7.184,1.222
7.188,1.180
7.192,0.990
7.196,0.698
7.200,-0.263
7.204,-1.302
7.208,-1.738
7.212,-2.027
7.216,-2.152
7.220,-2.107
7.224,-1.920
7.228,-1.617
7.232,-1.222
7.236,-0.730
7.240,-0.177
7.244,0.378
7.248,0.812
7.252,1.100
7.256,1.218
7.260,1.177
7.264,0.988
7.268,0.698
7.272,0.312
7.276,-0.193
7.280,-1.403
7.284,-1.768
7.288,-2.045
7.292,-2.152
7.296,-2.103
7.300,-1.900
7.304,-1.605
7.308,-1.208
7.312,-0.703
7.316,-0.147
7.320,0.407
7.324,0.848
7.328,1.137
7.332,1.248
7.336,1.198
7.340,0.998
7.344,0.698
7.348,0.302
7.352,-0.210
7.356,-0.752
7.360,-1.810
7.364,-2.090
7.368,-2.160
7.372,-2.103
7.376,-1.900
7.380,-1.610
7.384,-1.202
7.388,-0.708
7.392,-0.163
7.396,0.393
7.400,0.830
7.404,1.137
7.408,1.238
7.412,1.192
7.416,1.012
7.420,0.708
7.424,0.338
7.428,-0.180
7.432,-0.875
7.436,-1.308
7.440,-2.060
7.444,-2.167
7.448,-2.083
7.452,-1.887
7.456,-1.607
7.460,-1.212
7.464,-0.723
7.468,-0.180
7.472,0.367
7.476,0.797
7.480,1.093
7.484,1.212
7.488,1.165
7.492,0.978
7.496,0.677
7.500,0.290
7.504,-0.207
7.508,-0.767
7.512,-1.327
7.516,-1.768
7.520,-2.143
7.524,-2.062
7.528,-1.885
7.532,-1.613
7.536,-1.218
7.540,-0.713
7.544,-0.163
7.548,0.383
7.552,0.823
7.556,1.110
7.560,1.230
7.564,1.188
7.568,1.008
7.572,0.710
7.576,0.340
7.580,-0.163
7.584,-0.728
7.588,-1.262
7.592,-1.718
7.596,-2.022
7.600,-2.092
7.604,-1.938
7.608,-1.647
7.612,-1.262
7.616,-0.772
7.620,-0.228
7.624,0.338
7.628,0.765
7.632,1.060
7.636,1.188
7.640,1.143
7.644,0.948
7.648,0.660
7.652,0.285
7.656,-0.223
7.660,-0.777
7.664,-1.330
7.668,-1.775
7.672,-2.060
7.676,-2.172
7.680,-1.887
7.684,-1.627
7.688,-1.232
7.692,-0.738
7.696,-0.185
7.700,0.378
7.704,0.823
7.708,1.107
7.712,1.232
7.716,1.183
7.720,0.998
7.724,0.698
7.728,0.310
7.732,-0.188
7.736,-0.745
7.740,-1.325
7.744,-1.768
7.748,-2.058
7.752,-2.178
7.756,-2.138
7.760,-1.575
7.764,-1.248
7.768,-0.748
7.772,-0.168
7.776,0.367
7.780,0.812
7.784,1.103
7.788,1.225
7.792,1.177
7.796,0.935
7.800,0.685
7.804,0.302
7.808,-0.200
7.812,-0.748
7.816,-1.308
7.820,-1.740
7.824,-2.035
7.828,-2.163
7.832,-2.107
7.836,-1.910
7.840,-1.163
7.844,-0.177
7.848,0.383
7.852,0.830
7.856,1.117
7.860,1.258
7.864,1.210
7.868,1.022
7.872,0.730
7.876,0.347
7.880,-0.177
7.884,-0.740
7.888,-1.300
7.892,-1.748
7.896,-2.047
7.900,-2.172
7.904,-2.130
7.908,-1.942
7.912,-1.643
7.916,-1.250
7.920,-0.100
7.924,0.372
7.928,0.828
7.932,1.117
7.936,1.255
7.940,1.210
7.944,1.022
7.948,0.728
7.952,0.343
7.956,-0.172
7.960,-0.738
7.964,-1.305
7.968,-1.742
7.972,-2.042
7.976,-2.167
7.980,-2.127
7.984,-1.940
7.988,-1.647
7.992,-1.250
7.996,-0.750
8.000,0.422
8.004,0.787
8.008,1.093
8.012,1.222
8.016,1.177
8.020,0.993
8.024,0.698
8.028,0.312
8.032,-0.188
8.036,-0.740
8.040,-1.302
8.044,-1.738
8.048,-2.033
8.052,-2.163
8.056,-2.112
8.060,-1.930
8.064,-1.633
8.068,-1.250
8.072,-0.748
8.076,-0.212
8.080,0.833
8.084,1.062
8.088,1.192
8.092,1.153
8.096,0.983
8.100,0.698
8.104,0.318
8.108,-0.175
8.112,-0.723
8.116,-1.262
8.120,-1.712
8.124,-2.007
8.128,-2.138
8.132,-2.087
8.136,-1.897
8.140,-1.615
8.144,-1.232
8.148,-0.752
8.152,-0.228
8.156,0.315
8.160,1.075
8.164,1.173
8.168,1.117
8.172,0.938
8.176,0.657
8.180,0.287
8.184,-0.212
8.188,-0.843
8.192,-1.550
8.196,-2.042
8.200,-2.163
8.204,-2.127
8.208,-1.940
8.212,-1.653
8.216,-1.262
8.220,-0.777
8.224,-0.207
8.228,0.343
8.232,0.777
8.236,1.075
8.240,1.137
8.244,0.978
8.248,0.682
8.252,0.307
8.256,-0.182
8.260,-0.750
8.264,-1.302
8.268,-1.748
8.272,-2.047
8.276,-2.183
8.280,-2.143
8.284,-1.952
8.288,-1.657
8.292,-1.268
8.296,-0.782
8.300,-0.212
8.304,0.347
8.308,0.787
8.312,1.097
8.316,1.230
8.320,0.958
8.324,0.657
8.328,0.335
8.332,-0.168
8.336,-0.748
8.340,-1.308
8.344,-1.762
8.348,-2.045
8.352,-2.172
8.356,-2.112
8.360,-1.933
8.364,-1.623
8.368,-1.232
8.372,-0.738
8.376,-0.177
8.380,0.388
8.384,0.828
8.388,1.135
8.392,1.255
8.396,1.218
8.400,0.688
8.404,0.255
8.408,-0.775
8.412,-1.260
8.416,-1.712
8.420,-2.010
8.424,-2.138
8.428,-2.095
8.432,-1.907
8.436,-1.623
8.440,-1.238
8.444,-0.748
8.448,-0.193
8.452,0.350
8.456,0.792
8.460,1.097
8.464,1.228
8.468,1.192
8.472,1.015
8.476,0.718
8.480,-0.247
8.484,-1.302
8.488,-1.738
8.492,-2.030
8.496,-2.152
8.500,-2.107
8.504,-1.923
8.508,-1.620
8.512,-1.225
8.516,-0.743
8.520,-0.193
8.524,0.357
8.528,0.782
8.532,1.085
8.536,1.218
8.540,1.177
8.544,0.993
8.548,0.700
8.552,0.318
8.556,-0.170
8.560,-1.375
8.564,-1.728
8.568,-2.033
8.572,-2.143
8.576,-2.100
8.580,-1.907
8.584,-1.617
8.588,-1.245
8.592,-0.750
8.596,-0.203
8.600,0.352
8.604,0.782
8.608,1.080
8.612,1.210
8.616,1.167
8.620,0.983
8.624,0.693
8.628,0.307
8.632,-0.180
8.636,-0.740
8.640,-1.805
8.644,-2.172
8.648,-2.132
8.652,-1.948
8.656,-1.653
8.660,-1.288
8.664,-0.787
8.668,-0.223
8.672,0.315
8.676,0.772
8.680,1.070
8.684,1.205
8.688,1.167
8.692,0.988
8.696,0.693
8.700,0.312
8.704,-0.177
8.708,-0.748
8.712,-1.302
8.716,-1.742
8.720,-2.175
8.724,-2.132
8.728,-1.948
8.732,-1.653
8.736,-1.262
8.740,-0.772
8.744,-0.212
8.748,0.347
8.752,0.782
8.756,1.093
8.760,1.228
8.764,1.188
8.768,1.008
8.772,0.708
8.776,0.343
8.780,-0.145
8.784,-0.728
8.788,-1.258
8.792,-1.712
8.796,-2.013
8.800,-2.083
8.804,-1.883
8.808,-1.633
8.812,-1.288
8.816,-0.787
8.820,-0.217
8.824,0.318
8.828,0.770
8.832,1.073
8.836,1.208
8.840,1.173
8.844,0.993
8.848,0.703
8.852,0.333
8.856,-0.142
8.860,-0.710
8.864,-1.258
8.868,-1.712
8.872,-2.015
8.876,-2.152
8.880,-1.900
8.884,-1.657
8.888,-1.290
8.892,-0.802
8.896,-0.228
8.900,0.333
8.904,0.767
8.908,1.090
8.912,1.228
8.916,1.188
8.920,1.012
8.924,0.703
8.928,0.347
8.932,-0.133
8.936,-0.713
8.940,-1.258
8.944,-1.708
8.948,-2.025
8.952,-2.152
8.956,-2.123
8.960,-1.585
8.964,-1.262
8.968,-0.772
8.972,-0.205
8.976,0.347
8.980,0.785
8.984,1.093
8.988,1.228
8.992,1.188
8.996,1.012
9.000,0.718
9.004,0.352
9.008,-0.130
9.012,-0.708
9.016,-1.255
9.020,-1.712
9.024,-2.020
9.028,-2.163
9.032,-2.132
9.036,-1.952
9.040,-1.222
9.044,-0.823
9.048,-0.260
9.052,0.275
9.056,0.718
9.060,1.028
9.064,1.167
9.068,1.115
9.072,0.940
9.076,0.662
9.080,0.302
9.084,-0.182
9.088,-0.748
9.092,-1.290
9.096,-1.722
9.100,-2.018
9.104,-2.147
9.108,-2.112
9.112,-1.927
9.116,-1.643
9.120,-0.690
9.124,0.312
9.128,0.752
9.132,1.060
9.136,1.192
9.140,1.157
9.144,0.983
9.148,0.698
9.152,0.318
9.156,-0.165
9.160,-0.733
9.164,-1.288
9.168,-1.730
9.172,-2.020
9.176,-2.145
9.180,-2.112
9.184,-1.930
9.188,-1.643
9.192,-1.252
9.196,-0.772
9.200,0.412
9.204,0.848
9.208,1.097
9.212,1.218
9.216,1.183
9.220,0.998
9.224,0.708
9.228,0.340
9.232,-0.147
9.236,-0.733
9.240,-1.298
9.244,-1.728
9.248,-2.027
9.252,-2.167
9.256,-2.123
9.260,-1.938
9.264,-1.647
9.268,-1.258
9.272,-0.772
9.276,-0.212
9.280,0.855
9.284,1.097
9.288,1.232
9.292,1.205
9.296,1.028
9.300,0.738
9.304,0.370
9.308,-0.115
9.312,-0.733
9.316,-1.252
9.320,-1.708
9.324,-2.013
9.328,-2.143
9.332,-2.013
9.336,-1.605
9.340,-1.262
9.344,-0.787
9.348,-0.242
9.352,0.315
9.356,0.760
9.360,1.218
9.364,1.180
9.368,1.012
9.372,0.713
9.376,0.347
9.380,-0.145
9.384,-0.723
9.388,-1.292
9.392,-1.728
9.396,-2.025
9.400,-2.147
9.404,-2.123
9.408,-1.938
9.412,-1.650
9.416,-1.262
9.420,-0.805
9.424,-0.253
9.428,0.310
9.432,0.750
9.436,1.062
9.440,1.147
9.444,0.990
9.448,0.703
9.452,0.338
9.456,-0.165
9.460,-0.723
9.464,-1.302
9.468,-1.765
9.472,-2.065
9.476,-2.212
9.480,-2.172
9.484,-1.992
9.488,-1.695
9.492,-1.323
9.496,-0.828
9.500,-0.268
9.504,0.302
9.508,0.745
9.512,1.058
9.516,1.212
9.520,0.910
9.524,0.698
9.528,0.343
9.532,-0.142
9.536,-0.708
9.540,-1.260
9.544,-1.708
9.548,-2.018
9.552,-2.167
9.556,-2.127
9.560,-1.952
9.564,-1.663
9.568,-1.302
9.572,-0.820
9.576,-0.263
9.580,0.292
9.584,0.748
9.588,1.055
9.592,1.198
9.596,1.177
9.600,0.660
9.604,0.345
9.608,-0.142
9.612,-0.705
9.616,-1.265
9.620,-1.722
9.624,-2.033
9.628,-2.172
9.632,-2.145
9.636,-1.970
9.640,-1.673
9.644,-1.308
9.648,-0.812
9.652,-0.260
9.656,0.300
9.660,0.738
9.664,1.048
9.668,1.188
9.672,1.147
9.676,0.983
9.680,0.250
9.684,-0.172
9.688,-0.738
9.692,-1.312
9.696,-1.785
9.700,-2.083
9.704,-2.212
9.708,-2.172
9.712,-2.002
9.716,-1.705
9.720,-1.325
9.724,-0.853
9.728,-0.292
9.732,0.273
9.736,0.720
9.740,1.038
9.744,1.173
9.748,1.145
9.752,0.960
9.756,0.672
9.760,-0.260
9.764,-0.738
9.768,-1.308
9.772,-1.742
9.776,-2.058
9.780,-2.192
9.784,-2.150
9.788,-1.972
9.792,-1.670
9.796,-1.302
9.800,-0.812
9.804,-0.250
9.808,0.333
9.812,0.772
9.816,1.077
9.820,1.212
9.824,1.177
9.828,0.993
9.832,0.703
9.836,0.318
9.840,-0.823
9.844,-1.722
9.848,-2.018
9.852,-2.147
9.856,-2.107
9.860,-1.933
9.864,-1.633
9.868,-1.258
9.872,-0.772
9.876,-0.217
9.880,0.347
9.884,0.777
9.888,1.077
9.892,1.222
9.896,1.183
9.900,0.998
9.904,0.703
9.908,0.333
9.912,-0.165
9.916,-0.738
9.920,-1.812
9.924,-2.053
9.928,-2.188
9.932,-2.150
9.936,-1.968
9.940,-1.673
9.944,-1.302
9.948,-0.823
9.952,-0.263
9.956,0.297
9.960,0.738
9.964,1.052
9.968,1.188
9.972,1.163
9.976,0.983
9.980,0.698
9.984,0.333
9.988,-0.147
9.992,-0.700
9.996,-1.258
10.000,-2.033
10.004,-2.138
10.008,-2.103
10.012,-1.927
10.016,-1.633
10.020,-1.252
10.024,-0.772
10.028,-0.223
10.032,0.338
10.036,0.777
10.040,1.077
10.044,1.222
10.048,1.188
10.052,1.020
10.056,0.730
10.060,0.365
10.064,-0.130
10.068,-0.698
10.072,-1.260
10.076,-1.708
10.080,-2.163
10.084,-2.112
10.088,-1.935
10.092,-1.643
10.096,-1.258
10.100,-0.777
10.104,-0.223
10.108,0.818
10.112,1.077
10.116,1.220
10.120,1.173
10.124,1.008
10.128,0.718
10.132,0.352
10.136,-0.128
10.140,-0.695
10.144,-1.262
10.148,-1.718
10.152,-2.030
10.156,-2.172
10.160,-1.905
10.164,-1.657
10.168,-1.288
10.172,-0.800
10.176,-0.233
10.180,0.318
10.184,0.760
10.188,1.070
10.192,1.210
10.196,1.173
10.200,1.002
10.204,0.718
10.208,0.357
10.212,-0.113
10.216,-0.685
10.220,-1.250
10.224,-1.692
10.228,-1.995
10.232,-2.138
10.236,-2.105
10.240,-1.580
10.244,-1.183
10.248,-0.785
10.252,-0.228
10.256,0.340
10.260,0.777
10.264,1.095
10.268,1.248
10.272,1.215
10.276,1.035
10.280,0.748
10.284,0.378
10.288,-0.122
10.292,-0.682
10.296,-1.248
10.300,-1.698
10.304,-2.005
10.308,-2.132
10.312,-2.103
10.316,-1.907
10.320,-1.183
10.324,-0.777
10.328,-0.228
10.332,0.333
10.336,0.772
10.340,1.073
10.344,1.218
10.348,1.183
10.352,1.012
10.356,0.728
10.360,0.357
10.364,-0.133
10.368,-0.693
10.372,-1.252
10.376,-1.722
10.380,-2.027
10.384,-2.172
10.388,-2.138
10.392,-1.968
10.396,-1.683
10.400,-0.733
10.404,0.352
10.408,0.750
10.412,1.058
10.416,1.210
10.420,1.173
10.424,1.008
10.428,0.713
10.432,0.352
10.436,-0.138
10.440,-0.728
10.444,-1.300
10.448,-1.738
10.452,-2.033
10.456,-2.172
10.460,-2.140
10.464,-1.965
10.468,-1.653
10.472,-1.312
10.476,-0.818
10.480,0.367
10.484,1.048
10.488,1.185
10.492,1.153
10.496,0.988
10.500,0.703
10.504,0.347
10.508,-0.142
10.512,-0.805
10.516,-1.802
10.520,-2.038
10.524,-2.172
10.528,-2.138
10.532,-1.952
10.536,-1.663
10.540,-1.298
10.544,-0.807
10.548,-0.253
10.552,0.310
10.556,0.760
10.560,1.222
10.564,1.180
10.568,1.008
10.572,0.715
10.576,0.350
10.580,-0.138
10.584,-0.710
10.588,-1.262
10.592,-1.732
10.596,-2.047
10.600,-2.192
10.604,-2.178
10.608,-1.970
10.612,-1.663
10.616,-1.290
10.620,-0.833
10.624,-0.273
10.628,0.292
10.632,0.748
10.636,1.060
10.640,1.147
10.644,0.998
10.648,0.710
10.652,0.343
10.656,-0.140
10.660,-0.708
10.664,-1.258
10.668,-1.732
10.672,-2.033
10.676,-2.178
10.680,-2.138
10.684,-1.962
10.688,-1.673
10.692,-1.302
10.696,-0.812
10.700,-0.260
10.704,0.297
10.708,0.752
10.712,1.058
10.716,1.198
10.720,0.943
10.724,0.613
10.728,0.312
10.732,-0.163
10.736,-0.728
10.740,-1.290
10.744,-1.728
10.748,-2.033
10.752,-2.170
10.756,-2.138
10.760,-1.962
10.764,-1.665
10.768,-1.292
10.772,-0.807
10.776,-0.247
10.780,0.307
10.784,0.757
10.788,1.073
10.792,1.212
10.796,1.180
10.800,0.667
10.804,0.357
10.808,-0.133
10.812,-0.698
10.816,-1.255
10.820,-1.732
10.824,-2.042
10.828,-2.178
10.832,-2.145
10.836,-1.968
10.840,-1.673
10.844,-1.312
10.848,-0.782
10.852,-0.263
10.856,0.292
10.860,0.752
10.864,1.065
10.868,1.218
10.872,1.183
10.876,1.015
10.880,0.300
10.884,-0.228
10.888,-0.682
10.892,-1.232
10.896,-1.710
10.900,-2.018
10.904,-2.172
10.908,-2.145
10.912,-1.980
10.916,-1.698
10.920,-1.333
10.924,-0.850
10.928,-0.292
10.932,0.263
10.936,0.728
10.940,1.035
10.944,1.185
10.948,1.167
10.952,0.998
10.956,0.730
10.960,-0.193
10.964,-0.682
10.968,-1.228
10.972,-1.698
10.976,-2.005
10.980,-2.143
10.984,-2.107
10.988,-1.940
10.992,-1.653
10.996,-1.288
11.000,-0.810
11.004,-0.258
11.008,0.292
11.012,0.743
11.016,1.035
11.020,1.180
11.024,1.147
11.028,0.980
11.032,0.693
11.036,0.333
11.040,-0.820
11.044,-1.377
11.048,-2.058
11.052,-2.183
11.056,-2.152
11.060,-1.970
11.064,-1.688
11.068,-1.312
11.072,-0.823
11.076,-0.263
11.080,0.300
11.084,0.772
11.088,1.073
11.092,1.222
11.096,1.192
11.100,1.012
11.104,0.728
11.108,0.367
11.112,-0.117
11.116,-0.690
11.120,-1.775
11.124,-2.163
11.128,-2.132
11.132,-1.962
11.136,-1.667
11.140,-1.302
11.144,-0.818
11.148,-0.260
11.152,0.307
11.156,0.770
11.160,1.077
11.164,1.232
11.168,1.208
11.172,1.030
11.176,0.743
11.180,0.372
11.184,-0.107
11.188,-0.805
11.192,-1.222
11.196,-1.698
11.200,-2.143
11.204,-2.103
11.208,-1.960
11.212,-1.673
11.216,-1.312
11.220,-0.828
11.224,-0.265
11.228,0.287
11.232,0.757
11.236,1.048
11.240,1.192
11.244,1.167
11.248,0.995
11.252,0.713
11.256,0.352
11.260,-0.147
11.264,-0.693
11.268,-1.238
11.272,-1.712
11.276,-2.018
11.280,-2.098
11.284,-1.938
11.288,-1.650
11.292,-1.265
11.296,-0.810
11.300,-0.255
11.304,0.302
11.308,0.757
11.312,1.070
11.316,1.218
11.320,1.188
11.324,1.015
11.328,0.733
11.332,0.357
11.336,-0.113
11.340,-0.682
11.344,-1.235
11.348,-1.710
11.352,-2.015
11.356,-2.167
11.360,-1.940
11.364,-1.288
11.368,-0.807
11.372,-0.273
11.376,0.273
11.380,0.738
11.384,1.052
11.388,1.195
11.392,1.180
11.396,1.012
11.400,0.728
11.404,0.372
11.408,-0.122
11.412,-0.682
11.416,-1.238
11.420,-1.718
11.424,-2.030
11.428,-2.172
11.432,-2.138
11.436,-1.962
11.440,-1.127
11.444,-0.787
11.448,-0.263
11.452,0.297
11.456,0.750
11.460,1.073
11.464,1.222
11.468,1.192
11.472,1.018
11.476,0.733
11.480,0.458
11.484,-0.128
11.488,-0.642
11.492,-1.192
11.496,-1.663
11.500,-1.992
11.504,-2.163
11.508,-2.138
11.512,-1.985
11.516,-1.700
11.520,-0.755
11.524,-0.292
11.528,0.268
11.532,0.718
11.536,1.048
11.540,1.185
11.544,1.157
11.548,0.993
11.552,0.703
11.556,0.343
11.560,-0.125
11.564,-0.688
11.568,-1.238
11.572,-1.710
11.576,-2.033
11.580,-2.178
11.584,-2.150
11.588,-1.982
11.592,-1.702
11.596,-1.343
11.600,-0.205
11.604,0.263
11.608,0.715
11.612,1.048
11.616,1.192
11.620,1.167
11.624,0.983
11.628,0.698
11.632,0.318
11.636,-0.160
11.640,-0.735
11.644,-1.268
11.648,-1.738
11.652,-2.062
11.656,-2.203
11.660,-2.178
11.664,-2.010
11.668,-1.728
11.672,-1.353
11.676,-0.868
11.680,0.343
11.684,1.060
11.688,1.188
11.692,1.167
11.696,0.998
11.700,0.718
11.704,0.357
11.708,-0.115
11.712,-0.682
11.716,-1.232
11.720,-1.698
11.724,-2.022
11.728,-2.163
11.732,-2.135
11.736,-1.968
11.740,-1.673
11.744,-1.305
11.748,-0.828
11.752,-0.275
11.756,0.280
11.760,1.073
11.764,1.117
11.768,0.950
11.772,0.693
11.776,0.338
11.780,-0.147
11.784,-0.705
11.788,-1.260
11.792,-1.728
11.796,-2.033
11.800,-2.178
11.804,-2.140
11.808,-1.962
11.812,-1.667
11.816,-1.292
11.820,-0.807
11.824,-0.258
11.828,0.292
11.832,0.757
11.836,1.067
11.840,1.180
11.844,1.032
11.848,0.748
11.852,0.383
11.856,-0.102
11.860,-0.670
11.864,-1.242
11.868,-1.705
11.872,-2.030
11.876,-2.172
11.880,-2.147
11.884,-1.972
11.888,-1.688
11.892,-1.323
11.896,-0.833
11.900,-0.287
11.904,0.270
11.908,0.733
11.912,1.038
11.916,1.183
11.920,0.938
11.924,0.698
11.928,0.343
11.932,-0.135
11.936,-0.698
11.940,-1.252
11.944,-1.710
11.948,-2.022
11.952,-2.167
11.956,-2.130
11.960,-1.948
11.964,-1.663
11.968,-1.292
11.972,-0.818
11.976,-0.263
11.980,0.287
11.984,0.740
11.988,1.052
11.992,1.188
11.996,1.163
12.000,0.660
12.004,0.347
12.008,-0.128
12.012,-0.682
12.016,-1.232
12.020,-1.698
12.024,-2.022
12.028,-2.165
12.032,-2.143
12.036,-1.972
12.040,-1.695
12.044,-1.327
12.048,-0.840
12.052,-0.282
12.056,0.278
12.060,0.738
12.064,1.062
12.068,1.215
12.072,1.192
12.076,1.022
12.080,0.297
12.084,-0.113
12.088,-0.690
12.092,-1.252
12.096,-1.722
12.100,-2.050
12.104,-2.195
12.108,-2.167
12.112,-1.988
12.116,-1.702
12.120,-1.330
12.124,-0.848
12.128,-0.287
12.132,0.275
12.136,0.748
12.140,1.073
12.144,1.220
12.148,1.198
12.152,1.020
12.156,0.735
12.160,-0.207
12.164,-0.693
12.168,-1.252
12.172,-1.732
12.176,-2.058
12.180,-2.212
12.184,-2.180
12.188,-2.010
12.192,-1.728
12.196,-1.363
12.200,-0.870
12.204,-0.320
12.208,0.255
12.212,0.715
12.216,1.038
12.220,1.188
12.224,1.167
12.228,0.998
12.232,0.713
12.236,0.357
12.240,-0.777
12.244,-1.248
12.248,-1.702
12.252,-2.027
12.256,-2.167
12.260,-2.135
12.264,-1.962
12.268,-1.665
12.272,-1.300
12.276,-0.833
12.280,-0.268
12.284,0.292
12.288,0.757
12.292,1.077
12.296,1.228
12.300,1.198
12.304,1.030
12.308,0.743
12.312,0.383
12.316,-0.092
12.320,-1.308
12.324,-1.683
12.328,-2.013
12.332,-2.163
12.336,-2.145
12.340,-1.978
12.344,-1.692
12.348,-1.330
12.352,-0.853
12.356,-0.300
12.360,0.268
12.364,0.733
12.368,1.058
12.372,1.208
12.376,1.183
12.380,1.022
12.384,0.743
12.388,0.393
12.392,-0.113
12.396,-0.652
12.400,-1.748
12.404,-2.163
12.408,-2.132
12.412,-1.968
12.416,-1.685
12.420,-1.312
12.424,-0.833
12.428,-0.285
12.432,0.287
12.436,0.743
12.440,1.060
12.444,1.212
12.448,1.180
12.452,1.018
12.456,0.738
12.460,0.372
12.464,-0.102
12.468,-0.682
12.472,-1.232
12.476,-1.702
12.480,-2.170
12.484,-2.132
12.488,-1.968
12.492,-1.677
12.496,-1.312
12.500,-0.843
12.504,-0.282
12.508,0.278
12.512,0.745
12.516,1.067
12.520,1.218
12.524,1.192
12.528,1.028
12.532,0.748
12.536,0.390
12.540,-0.083
12.544,-0.647
12.548,-1.202
12.552,-1.663
12.556,-1.985
12.560,-2.087
12.564,-1.935
12.568,-1.653
12.572,-1.288
12.576,-0.805
12.580,-0.253
12.584,0.310
12.588,0.767
12.592,1.077
12.596,1.232
12.600,1.208
12.604,1.032
12.608,0.752
12.612,0.393
12.616,-0.085
12.620,-0.652
12.624,-1.218
12.628,-1.692
12.632,-2.018
12.636,-2.170
12.640,-1.927
12.644,-1.673
12.648,-1.302
12.652,-0.833
12.656,-0.193
12.660,0.290
12.664,0.730
12.668,1.052
12.672,1.212
12.676,1.188
12.680,1.028
12.684,0.750
12.688,0.395
12.692,-0.072
12.696,-0.623
12.700,-1.177
12.704,-1.645
12.708,-1.962
12.712,-2.112
12.716,-2.095
12.720,-1.607
12.724,-1.300
12.728,-0.828
12.732,-0.282
12.736,0.287
12.740,0.740
12.744,1.058
12.748,1.212
12.752,1.188
12.756,1.022
12.760,0.743
12.764,0.380
12.768,-0.098
12.772,-0.662
12.776,-1.252
12.780,-1.698
12.784,-2.018
12.788,-2.167
12.792,-2.138
12.796,-1.975
12.800,-1.238
12.804,-0.233
12.808,0.297
12.812,0.823
12.816,1.190
12.820,1.167
12.824,1.005
12.828,0.713
12.832,0.365
12.836,-0.113
12.840,-0.662
12.844,-1.220
12.848,-1.683
12.852,-1.990
12.856,-2.138
12.860,-2.112
12.864,-1.942
12.868,-1.667
12.872,-1.302
12.876,-0.833
12.880,0.355
12.884,0.728
12.888,1.035
12.892,1.185
12.896,1.175
12.900,1.010
12.904,0.728
12.908,0.367
12.912,-0.107
12.916,-0.662
12.920,-1.212
12.924,-1.683
12.928,-2.010
12.932,-2.152
12.936,-2.127
12.940,-1.945
12.944,-1.673
12.948,-1.305
12.952,-0.823
12.956,-0.273
12.960,0.797
12.964,1.058
12.968,1.208
12.972,1.180
12.976,1.018
12.980,0.733
12.984,0.372
12.988,-0.098
12.992,-0.657
12.996,-1.212
13.000,-1.683
13.004,-1.992
13.008,-2.150
13.012,-2.135
13.016,-1.970
13.020,-1.688
13.024,-1.330
13.028,-0.858
13.032,-0.323
13.036,0.258
13.040,1.073
13.044,1.173
13.048,1.005
13.052,0.728
13.056,0.370
13.060,-0.105
13.064,-0.667
13.068,-1.228
13.072,-1.700
13.076,-2.013
13.080,-2.163
13.084,-2.132
13.088,-1.962
13.092,-1.665
13.096,-1.300
13.100,-0.820
13.104,-0.268
13.108,0.292
13.112,0.750
13.116,1.067
13.120,1.183
13.124,1.050
13.128,0.760
13.132,0.398
13.136,-0.072
13.140,-0.623
13.144,-1.183
13.148,-1.663
13.152,-1.982
13.156,-2.140
13.160,-2.120
13.164,-1.952
13.168,-1.665
13.172,-1.308
13.176,-0.830
13.180,-0.263
13.184,0.273
13.188,0.735
13.192,1.050
13.196,1.208
13.200,0.978
13.204,0.733
13.208,0.378
13.212,-0.102
13.216,-0.662
13.220,-1.220
13.224,-1.688
13.228,-1.995
13.232,-2.147
13.236,-2.132
13.240,-1.960
13.244,-1.667
13.248,-1.300
13.252,-0.823
13.256,-0.273
13.260,0.297
13.264,0.760
13.268,1.093
13.272,1.238
13.276,1.225
13.280,0.730
13.284,0.430
13.288,-0.052
13.292,-0.608
13.296,-1.170
13.300,-1.643
13.304,-1.965
13.308,-2.127
13.312,-2.103
13.316,-1.940
13.320,-1.660
13.324,-1.308
13.328,-0.843
13.332,-0.292
13.336,0.263
13.340,0.718
13.344,1.048
13.348,1.195
13.352,1.183
13.356,1.010
13.360,0.300
13.364,-0.102
13.368,-0.672
13.372,-1.250
13.376,-1.708
13.380,-2.013
13.384,-2.170
13.388,-2.143
13.392,-1.978
13.396,-1.698
13.400,-1.337
13.404,-0.858
13.408,-0.307
13.412,0.253
13.416,0.718
13.420,1.038
13.424,1.202
13.428,1.192
13.432,1.028
13.436,0.755
13.440,-0.150
13.444,-0.613
13.448,-1.177
13.452,-1.647
13.456,-1.968
13.460,-2.132
13.464,-2.120
13.468,-1.962
13.472,-1.685
13.476,-1.330
13.480,-0.858
13.484,-0.307
13.488,0.258
13.492,0.713
13.496,1.038
13.500,1.190
13.504,1.175
13.508,1.012
13.512,0.730
13.516,0.378
13.520,-0.738
13.524,-1.302
13.528,-1.670
13.532,-1.988
13.536,-2.147
13.540,-2.127
13.544,-1.962
13.548,-1.698
13.552,-1.337
13.556,-0.863
13.560,-0.328
13.564,0.247
13.568,0.782
13.572,1.028
13.576,1.177
13.580,1.165
13.584,1.008
13.588,0.718
13.592,0.383
13.596,-0.092
13.600,-1.302
13.604,-1.685
13.608,-2.013
13.612,-2.170
13.616,-2.143
13.620,-1.975
13.624,-1.695
13.628,-1.337
13.632,-0.858
13.636,-0.292
13.640,0.273
13.644,0.740
13.648,1.062
13.652,1.220
13.656,1.192
13.660,1.028
13.664,0.745
13.668,0.388
13.672,-0.083
13.676,-0.645
13.680,-1.738
13.684,-2.013
13.688,-2.178
13.692,-2.150
13.696,-1.992
13.700,-1.708
13.704,-1.343
13.708,-0.863
13.712,-0.300
13.716,0.263
13.720,0.738
13.724,1.060
13.728,1.225
13.732,1.208
13.736,1.038
13.740,0.752
13.744,0.390
13.748,-0.083
13.752,-0.647
13.756,-1.202
13.760,-2.033
13.764,-2.127
13.768,-1.972
13.772,-1.692
13.776,-1.327
13.780,-0.850
13.784,-0.292
13.788,0.268
13.792,0.728
13.796,1.038
13.800,1.192
13.804,1.170
13.808,0.998
13.812,0.713
13.816,0.357
13.820,-0.122
13.824,-0.688
13.828,-1.232
13.832,-1.702
13.836,-2.020
13.840,-2.132
13.844,-1.692
13.848,-1.333
13.852,-0.858
13.856,-0.307
13.860,0.258
13.864,0.715
13.868,1.038
13.872,1.198
13.876,1.188
13.880,1.030
13.884,0.752
13.888,0.407
13.892,-0.065
13.896,-0.623
13.900,-1.188
13.904,-1.663
13.908,-2.007
13.912,-2.165
13.916,-2.147
13.920,-1.657
13.924,-1.308
13.928,-0.868
13.932,-0.328
13.936,0.253
13.940,0.718
13.944,1.052
13.948,1.220
13.952,1.208
13.956,1.048
13.960,0.772
13.964,0.407
13.968,-0.065
13.972,-0.627
13.976,-1.192
13.980,-1.673
13.984,-2.007
13.988,-2.172
13.992,-2.155
13.996,-2.005
14.000,-1.292
14.004,-0.887
14.008,-0.345
14.012,0.228
14.016,0.700
14.020,1.025
14.024,1.185
14.028,1.173
14.032,1.008
14.036,0.733
14.040,0.375
14.044,-0.095
14.048,-0.647
14.052,-1.192
14.056,-1.670
14.060,-1.985
14.064,-2.143
14.068,-2.125
14.072,-1.952
14.076,-1.683
14.080,-0.752
14.084,-0.302
14.088,0.263
14.092,0.720
14.096,1.048
14.100,1.210
14.104,1.180
14.108,1.020
14.112,0.740
14.116,0.380
14.120,-0.098
14.124,-0.657
14.128,-1.218
14.132,-1.700
14.136,-2.030
14.140,-2.192
14.144,-2.178
14.148,-2.015
14.152,-1.732
14.156,-1.380
14.160,-0.253
14.164,0.220
14.168,0.693
14.172,1.022
14.176,1.188
14.180,1.177
14.184,1.022
14.188,0.752
14.192,0.410
14.196,-0.058
14.200,-0.603
14.204,-1.167
14.208,-1.630
14.212,-1.962
14.216,-2.115
14.220,-2.100
14.224,-1.942
14.228,-1.663
14.232,-1.312
14.236,-0.843
14.240,0.340
14.244,1.052
14.248,1.192
14.252,1.177
14.256,1.015
14.260,0.743
14.264,0.388
14.268,-0.072
14.272,-0.625
14.276,-1.202
14.280,-1.673
14.284,-2.007
14.288,-2.163
14.292,-2.138
14.296,-1.980
14.300,-1.702
14.304,-1.347
14.308,-0.882
14.312,-0.335
14.316,0.260
14.320,1.073
14.324,1.208
14.328,1.190
14.332,1.038
14.336,0.347
14.340,-0.058
14.344,-0.613
14.348,-1.183
14.352,-1.663
14.356,-1.998
14.360,-2.165
14.364,-2.165
14.368,-2.007
14.372,-1.725
14.376,-1.365
14.380,-0.887
14.384,-0.340
14.388,0.237
14.392,0.705
14.396,1.032
14.400,1.167
14.404,0.748
14.408,0.390
14.412,-0.072
14.416,-0.625
14.420,-1.190
14.424,-1.673
14.428,-2.000
14.432,-2.163
14.436,-2.143
14.440,-1.980
14.444,-1.708
14.448,-1.347
14.452,-0.870
14.456,-0.325
14.460,0.245
14.464,0.713
14.468,1.048
14.472,1.220
14.476,1.208
14.480,0.715
14.484,0.415
14.488,-0.060
14.492,-0.615
14.496,-1.183
14.500,-1.663
14.504,-1.982
14.508,-2.143
14.512,-2.138
14.516,-1.978
14.520,-1.698
14.524,-1.340
14.528,-0.882
14.532,-0.333
14.536,0.233
14.540,0.698
14.544,1.022
14.548,1.188
14.552,1.183
14.556,1.032
14.560,0.347
14.564,-0.122
14.568,-0.645
14.572,-1.230
14.576,-1.725
14.580,-1.992
14.584,-2.132
14.588,-2.132
14.592,-1.970
14.596,-1.698
14.600,-1.353
14.604,-0.892
14.608,-0.352
14.612,0.217
14.616,0.690
14.620,1.022
14.624,1.183
14.628,1.167
14.632,1.010
14.636,0.738
14.640,-0.172
14.644,-0.623
14.648,-1.185
14.652,-1.667
14.656,-1.988
14.660,-2.145
14.664,-2.138
14.668,-1.980
14.672,-1.702
14.676,-1.353
14.680,-0.887
14.684,-0.347
14.688,0.225
14.692,0.695
14.696,1.028
14.700,1.183
14.704,1.163
14.708,0.993
14.712,0.718
14.716,0.367
14.720,-0.743
14.724,-1.212
14.728,-1.690
14.732,-2.013
14.736,-2.178
14.740,-2.160
14.744,-1.985
14.748,-1.708
14.752,-1.343
14.756,-0.870
14.760,-0.333
14.764,0.242
14.768,0.703
14.772,1.032
14.776,1.192
14.780,1.183
14.784,1.032
14.788,0.757
14.792,0.412
14.796,-0.062
14.800,-1.290
14.804,-1.667
14.808,-1.992
14.812,-2.163
14.816,-2.145
14.820,-1.978
14.824,-1.702
14.828,-1.340
14.832,-0.868
14.836,-0.325
14.840,0.247
14.844,0.713
14.848,1.038
14.852,1.198
14.856,1.188
14.860,1.025
14.864,0.767
14.868,0.410
14.872,-0.052
14.876,-0.598
14.880,-1.705
14.884,-1.978
14.888,-2.150
14.892,-2.132
14.896,-1.970
14.900,-1.698
14.904,-1.343
14.908,-0.868
14.912,-0.328
14.916,0.247
14.920,0.713
14.924,1.032
14.928,1.198
14.932,1.180
14.936,1.018
14.940,0.752
14.944,0.398
14.948,-0.058
14.952,-0.740
14.956,-1.180
14.960,-2.007
14.964,-2.112
14.968,-2.120
14.972,-1.663
14.976,-1.345
14.980,-0.890
14.984,-0.352
14.988,0.217
14.992,0.688
14.996,1.022
15.000,1.190
15.004,1.190
15.008,1.028
15.012,0.752
15.016,0.398
15.020,-0.058
15.024,-0.605
15.028,-1.173
15.032,-1.657
15.036,-1.978
15.040,-2.127
15.044,-1.705
15.048,-1.350
15.052,-0.887
15.056,-0.343
15.060,0.228
15.064,0.703
15.068,1.030
15.072,1.198
15.076,1.192
15.080,1.020
15.084,0.757
15.088,0.398
15.092,-0.072
15.096,-0.642
15.100,-1.235
15.104,-1.700
15.108,-2.015
15.112,-2.183
15.116,-2.172
15.120,-1.673
15.124,-1.370
15.128,-0.907
15.132,-0.352
15.136,0.220
15.140,0.693
15.144,1.028
15.148,1.188
15.152,1.180
15.156,1.025
15.160,0.752
15.164,0.410
15.168,-0.062
15.172,-0.613
15.176,-1.183
15.180,-1.653
15.184,-1.988
15.188,-2.163
15.192,-2.147
15.196,-1.982
15.200,-1.298
15.204,-0.890
15.208,-0.340
15.212,0.228
15.216,0.703
15.220,1.038
15.224,1.208
15.228,1.192
15.232,1.048
15.236,0.770
15.240,0.417
15.244,-0.033
15.248,-0.588
15.252,-1.160
15.256,-1.647
15.260,-1.972
15.264,-2.140
15.268,-2.138
15.272,-1.978
15.276,-1.708
15.280,-0.785
15.284,-0.340
15.288,0.235
15.292,0.708
15.296,1.032
15.300,1.218
15.304,1.218
15.308,1.062
15.312,0.790
15.316,0.432
15.320,-0.030
15.324,-0.588
15.328,-1.173
15.332,-1.660
15.336,-1.998
15.340,-2.172
15.344,-2.163
15.348,-2.007
15.352,-1.735
15.356,-1.373
15.360,-0.255
15.364,0.217
15.368,0.688
15.372,1.020
15.376,1.192
15.380,1.188
15.384,1.030
15.388,0.767
15.392,0.415
15.396,-0.048
15.400,-0.603
15.404,-1.167
15.408,-1.657
15.412,-1.985
15.416,-2.163
15.420,-2.163
15.424,-2.007
15.428,-1.738
15.432,-1.390
15.436,-0.922
15.440,0.268
15.444,0.662
15.448,0.993
15.452,1.163
15.456,1.155
15.460,1.008
15.464,0.743
15.468,0.372
15.472,-0.062
15.476,-0.613
15.480,-1.173
15.484,-1.655
15.488,-1.982
15.492,-2.145
15.496,-2.138
15.500,-1.980
15.504,-1.708
15.508,-1.355
15.512,-0.892
15.516,-0.352
15.520,0.757
15.524,1.028
15.528,1.205
15.532,1.198
15.536,1.038
15.540,0.777
15.544,0.427
15.548,-0.040
15.552,-0.583
15.556,-1.163
15.560,-1.645
15.564,-1.975
15.568,-2.138
15.572,-2.132
15.576,-1.982
15.580,-1.708
15.584,-1.350
15.588,-0.892
15.592,-0.343
15.596,0.245
15.600,1.103
15.604,1.238
15.608,1.230
15.612,1.067
15.616,0.812
15.620,0.448
15.624,-0.022
15.628,-0.580
15.632,-1.147
15.636,-1.643
15.640,-1.978
15.644,-2.152
15.648,-2.145
15.652,-1.988
15.656,-1.722
15.660,-1.370
15.664,-0.900
15.668,-0.362
15.672,0.207
15.676,0.688
15.680,1.192
15.684,1.180
15.688,1.008
15.692,0.728
15.696,0.398
15.700,-0.058
15.704,-0.608
15.708,-1.177
15.712,-1.657
15.716,-1.992
15.720,-2.172
15.724,-2.167
15.728,-2.010
15.732,-1.732
15.736,-1.373
15.740,-0.902
15.744,-0.355
15.748,0.217
15.752,0.690
15.756,1.028
15.760,1.192
15.764,0.777
15.768,0.427
15.772,-0.033
15.776,-0.585
15.780,-1.163
15.784,-1.647
15.788,-1.988
15.792,-2.167
15.796,-2.163
15.800,-2.007
15.804,-1.728
15.808,-1.377
15.812,-0.907
15.816,-0.372
15.820,0.207
15.824,0.688
15.828,1.022
15.832,1.190
15.836,1.188
15.840,0.713
15.844,-0.052
15.848,-0.672
15.852,-1.167
15.856,-1.647
15.860,-1.985
15.864,-2.167
15.868,-2.170
15.872,-2.013
15.876,-1.740
15.880,-1.380
15.884,-0.912
15.888,-0.367
15.892,0.198
15.896,0.693
15.900,1.030
15.904,1.218
15.908,1.212
15.912,1.060
15.916,0.780
15.920,-0.113
15.924,-0.700
15.928,-1.163
15.932,-1.643
15.936,-1.970
15.940,-2.132
15.944,-2.130
15.948,-1.980
15.952,-1.708
15.956,-1.363
15.960,-0.892
15.964,-0.350
15.968,0.223
15.972,0.693
15.976,1.028
15.980,1.190
15.984,1.188
15.988,1.028
15.992,0.752
15.996,0.412
16.000,-0.698
16.004,-1.663
16.008,-1.980
16.012,-2.152
16.016,-2.150
16.020,-2.010
16.024,-1.730
16.028,-1.380
16.032,-0.922
16.036,-0.378
16.040,0.207
16.044,0.677
16.048,1.028
16.052,1.208
16.056,1.210
16.060,1.055
16.064,0.780
16.068,0.430
16.072,-0.028
16.076,-0.583
16.080,-1.708
16.084,-2.030
16.088,-2.165
16.092,-2.147
16.096,-1.970
16.100,-1.323
16.104,-0.900
16.108,-0.347
16.112,0.228
16.116,0.703
16.120,1.032
16.124,1.208
16.128,1.188
16.132,1.032
16.136,0.755
16.140,0.417
16.144,-0.043
16.148,-0.593
16.152,-1.167
16.156,-1.647
16.160,-2.172
16.164,-2.152
16.168,-1.992
16.172,-1.728
16.176,-1.373
16.180,-0.902
16.184,-0.365
16.188,0.207
16.192,0.690
16.196,1.028
16.200,1.208
16.204,1.202
16.208,1.052
16.212,0.777
16.216,0.430
16.220,-0.033
16.224,-0.575
16.228,-1.133
16.232,-1.633
16.236,-1.982
16.240,-2.127
16.244,-1.990
16.248,-1.712
16.252,-1.363
16.256,-0.882
16.260,-0.350
16.264,0.233
16.268,0.700
16.272,1.032
16.276,1.210
16.280,1.208
16.284,1.058
16.288,0.787
16.292,0.438
16.296,-0.022
16.300,-0.573
16.304,-1.143
16.308,-1.633
16.312,-1.978
16.316,-2.163
16.320,-1.980
16.324,-1.363
16.328,-0.938
16.332,-0.388
16.336,0.188
16.340,0.660
16.344,0.998
16.348,1.167
16.352,1.173
16.356,1.022
16.360,0.752
16.364,0.417
16.368,-0.033
16.372,-0.578
16.376,-1.140
16.380,-1.620
16.384,-1.948
16.388,-2.132
16.392,-2.138
16.396,-1.992
16.400,-1.327
16.404,-0.930
16.408,-0.388
16.412,0.188
16.416,0.667
16.420,1.018
16.424,1.208
16.428,1.218
16.432,1.062
16.436,0.792
16.440,0.458
16.444,-0.007
16.448,-0.542
16.452,-1.123
16.456,-1.613
16.460,-1.950
16.464,-2.132
16.468,-2.143
16.472,-1.995
16.476,-1.738
16.480,-0.858
16.484,0.292
16.488,0.677
16.492,1.028
16.496,1.173
16.500,1.163
16.504,1.028
16.508,0.757
16.512,0.422
16.516,-0.022
16.520,-0.568
16.524,-1.135
16.528,-1.620
16.532,-1.945
16.536,-2.125
16.540,-2.125
16.544,-1.968
16.548,-1.700
16.552,-1.347
16.556,-0.895
16.560,0.297
16.564,0.693
16.568,1.025
16.572,1.192
16.576,1.190
16.580,1.032
16.584,0.757
16.588,0.417
16.592,-0.052
16.596,-0.593
16.600,-1.153
16.604,-1.643
16.608,-1.972
16.612,-2.147
16.616,-2.138
16.620,-1.990
16.624,-1.722
16.628,-1.377
16.632,-0.907
16.636,-0.378
16.640,0.718
16.644,0.998
16.648,1.177
16.652,1.183
16.656,1.028
16.660,0.755
16.664,0.417
16.668,-0.043
16.672,-0.583
16.676,-1.155
16.680,-1.647
16.684,-1.982
16.688,-2.160
16.692,-2.147
16.696,-2.002
16.700,-1.728
16.704,-1.375
16.708,-0.912
16.712,-0.372
16.716,0.210
16.720,1.073
16.724,1.208
16.728,1.220
16.732,1.062
16.736,0.785
16.740,0.448
16.744,-0.013
16.748,-0.568
16.752,-1.133
16.756,-1.623
16.760,-1.972
16.764,-2.145
16.768,-2.143
16.772,-1.992
16.776,-1.728
16.780,-1.377
16.784,-0.922
16.788,-0.383
16.792,0.185
16.796,0.660
16.800,1.183
16.804,1.177
16.808,1.028
16.812,0.752
16.816,0.407
16.820,-0.055
16.824,-0.603
16.828,-1.173
16.832,-1.657
16.836,-2.002
16.840,-2.178
16.844,-2.167
16.848,-2.007
16.852,-1.738
16.856,-1.377
16.860,-0.917
16.864,-0.385
16.868,0.193
16.872,0.677
16.876,1.018
16.880,1.195
16.884,0.988
16.888,0.383
16.892,-0.058
16.896,-0.613
16.900,-1.185
16.904,-1.690
16.908,-2.030
16.912,-2.208
16.916,-2.210
16.920,-2.062
16.924,-1.802
16.928,-1.425
16.932,-0.968
16.936,-0.420
16.940,0.155
16.944,0.652
16.948,0.993
16.952,1.177
16.956,1.183
16.960,0.713
16.964,-0.048
16.968,-0.590
16.972,-1.153
16.976,-1.647
16.980,-1.982
16.984,-2.163
16.988,-2.147
16.992,-2.002
16.996,-1.732
17.000,-1.363
17.004,-0.915
17.008,-0.375
17.012,0.205
17.016,0.690
17.020,1.028
17.024,1.212
17.028,1.208
17.032,1.060
17.036,0.785
17.040,-0.128
17.044,-0.580
17.048,-1.147
17.052,-1.633
17.056,-1.982
17.060,-2.163
17.064,-2.163
17.068,-2.013
17.072,-1.748
17.076,-1.373
17.080,-0.922
17.084,-0.378
17.088,0.198
17.092,0.690
17.096,1.032
17.100,1.215
17.104,1.218
17.108,1.070
17.112,0.820
17.116,0.458
17.120,-0.623
17.124,-1.103
17.128,-1.607
17.132,-1.952
17.136,-2.143
17.140,-2.163
17.144,-2.020
17.148,-1.765
17.152,-1.393
17.156,-0.932
17.160,-0.383
17.164,0.198
17.168,0.672
17.172,1.020
17.176,1.195
17.180,1.198
17.184,1.060
17.188,0.795
17.192,0.450
17.196,0.020
17.200,-1.183
17.204,-1.587
17.208,-1.942
17.212,-2.127
17.216,-2.138
17.220,-1.992
17.224,-1.730
17.228,-1.373
17.232,-0.917
17.236,-0.383
17.240,0.185
17.244,0.662
17.248,0.998
17.252,1.183
17.256,1.188
17.260,1.048
17.264,0.780
17.268,0.427
17.272,-0.018
17.276,-0.562
17.280,-1.688
17.284,-2.145
17.288,-2.138
17.292,-1.982
17.296,-1.708
17.300,-1.353
17.304,-0.892
17.308,-0.350
17.312,0.223
17.316,0.703
17.320,1.048
17.324,1.218
17.328,1.218
17.332,1.070
17.336,0.800
17.340,0.458
17.344,-0.007
17.348,-0.552
17.352,-1.130
17.356,-1.623
17.360,-2.163
17.364,-2.140
17.368,-1.988
17.372,-1.732
17.376,-1.365
17.380,-0.897
17.384,-0.338
17.388,0.217
17.392,0.703
17.396,1.058
17.400,1.235
17.404,1.248
17.408,1.077
17.412,0.828
17.416,0.465
17.420,0.018
17.424,-0.540
17.428,-1.113
17.432,-1.617
17.436,-1.955
17.440,-2.132
17.444,-2.007
17.448,-1.742
17.452,-1.383
17.456,-0.910
17.460,-0.380
17.464,0.193
17.468,0.677
17.472,1.028
17.476,1.212
17.480,1.218
17.484,1.067
17.488,0.790
17.492,0.430
17.496,-0.028
17.500,-0.580
17.504,-1.153
17.508,-1.647
17.512,-1.990
17.516,-2.172
17.520,-1.995
17.524,-1.772
17.528,-1.405
17.532,-0.948
17.536,-0.407
17.540,0.180
17.544,0.667
17.548,1.018
17.552,1.190
17.556,1.198
17.560,1.040
17.564,0.777
17.568,0.415
17.572,-0.043
17.576,-0.580
17.580,-1.147
17.584,-1.647
17.588,-1.988
17.592,-2.172
17.596,-2.178
17.600,-1.683
17.604,-0.932
17.608,-0.398
17.612,0.177
17.616,0.672
17.620,1.022
17.624,1.215
17.628,1.220
17.632,1.077
17.636,0.823
17.640,0.463
17.644,0.022
17.648,-0.535
17.652,-1.107
17.656,-1.607
17.660,-1.942
17.664,-2.127
17.668,-2.143
17.672,-2.002
17.676,-1.742
17.680,-0.873
17.684,-0.417
17.688,0.170
17.692,0.652
17.696,1.008
17.700,1.192
17.704,1.212
17.708,1.073
17.712,0.820
17.716,0.463
17.720,0.037
17.724,-0.512
17.728,-1.085
17.732,-1.577
17.736,-1.942
17.740,-2.132
17.744,-2.147
17.748,-2.007
17.752,-1.768
17.756,-1.407
17.760,-0.335
17.764,0.142
17.768,0.682
17.772,0.990
17.776,1.177
17.780,1.188
17.784,1.058
17.788,0.792
17.792,0.430
17.796,-0.007
17.800,-0.545
17.804,-1.127
17.808,-1.623
17.812,-1.978
17.816,-2.167
17.820,-2.172
17.824,-2.022
17.828,-1.768
17.832,-1.403
17.836,-0.945
17.840,0.263
17.844,0.667
17.848,1.020
17.852,1.218
17.856,1.225
17.860,1.093
17.864,0.830
17.868,0.468
17.872,0.037
17.876,-0.522
17.880,-1.100
17.884,-1.603
17.888,-1.950
17.892,-2.140
17.896,-2.152
17.900,-2.020
17.904,-1.768
17.908,-1.403
17.912,-0.963
17.916,-0.427
17.920,0.698
17.924,0.983
17.928,1.170
17.932,1.177
17.936,1.038
17.940,0.780
17.944,0.427
17.948,-0.028
17.952,-0.568
17.956,-1.127
17.960,-1.620
17.964,-1.962
17.968,-2.147
17.972,-2.163
17.976,-2.025
17.980,-1.778
17.984,-1.442
17.988,-0.978
17.992,-0.450
17.996,0.133
18.000,1.018
18.004,1.167
18.008,1.183
18.012,1.055
18.016,0.797
18.020,0.460
18.024,0.015
18.028,-0.527
18.032,-1.090
18.036,-1.580
18.040,-1.935
18.044,-2.112
18.048,-2.132
18.052,-1.982
18.056,-1.732
18.060,-1.397
18.064,-0.943
18.068,-0.427
18.072,0.138
18.076,0.618
18.080,1.157
18.084,1.153
18.088,1.012
18.092,0.748
18.096,0.398
18.100,-0.060
18.104,-0.583
18.108,-1.163
18.112,-1.657
18.116,-2.007
18.120,-2.188
18.124,-2.197
18.128,-2.053
18.132,-1.802
18.136,-1.458
18.140,-0.983
18.144,-0.432
18.148,0.138
18.152,0.627
18.156,0.988
18.160,1.188
18.164,1.060
18.168,0.797
18.172,0.455
18.176,-0.005
18.180,-0.535
18.184,-1.123
18.188,-1.603
18.192,-1.948
18.196,-2.138
18.200,-2.140
18.204,-1.988
18.208,-1.712
18.212,-1.363
18.216,-0.897
18.220,-0.365
18.224,0.212
18.228,0.700
18.232,1.048
18.236,1.230
18.240,1.073
18.244,0.843
18.248,0.477
18.252,0.020
18.256,-0.537
18.260,-1.113
18.264,-1.613
18.268,-1.962
18.272,-2.147
18.276,-2.152
18.280,-2.013
18.284,-1.738
18.288,-1.387
18.292,-0.930
18.296,-0.393
18.300,0.177
18.304,0.672
18.308,1.020
18.312,1.212
18.316,1.220
18.320,0.775
18.324,0.477
18.328,0.037
18.332,-0.512
18.336,-1.083
18.340,-1.580
18.344,-1.940
18.348,-2.127
18.352,-2.143
18.356,-2.007
18.360,-1.750
18.364,-1.403
18.368,-0.932
18.372,-0.405
18.376,0.177
18.380,0.667
18.384,1.020
18.388,1.210
18.392,1.228
18.396,1.087
18.400,0.425
18.404,-0.510
18.408,-1.073
18.412,-1.573
18.416,-1.938
18.420,-2.132
18.424,-2.147
18.428,-2.020
18.432,-1.772
18.436,-1.417
18.440,-0.973
18.444,-0.432
18.448,0.138
18.452,0.627
18.456,0.993
18.460,1.185
18.464,1.210
18.468,1.067
18.472,0.828
18.476,0.470
18.480,-0.608
18.484,-1.083
18.488,-1.603
18.492,-1.948
18.496,-2.143
18.500,-2.150
18.504,-2.018
18.508,-1.762
18.512,-1.405
18.516,-0.945
18.520,-0.422
18.524,0.150
18.528,0.637
18.532,0.998
18.536,1.185
18.540,1.188
18.544,1.048
18.548,0.767
18.552,0.432
18.556,-0.018
18.560,-1.190
18.564,-1.603
18.568,-2.100
18.572,-2.135
18.576,-1.972
18.580,-1.702
18.584,-1.350
18.588,-0.907
18.592,-0.378
18.596,0.188
18.600,0.672
18.604,1.022
18.608,1.218
18.612,1.225
18.616,1.075
18.620,0.812
18.624,0.450
18.628,-0.018
18.632,-0.562
18.636,-1.130
18.640,-2.013
18.644,-2.163
18.648,-2.170
18.652,-2.033
18.656,-1.782
18.660,-1.442
18.664,-0.983
18.668,-0.450
18.672,0.113
18.676,0.610
18.680,0.973
18.684,1.173
18.688,1.192
18.692,1.067
18.696,0.823
18.700,0.475
18.704,0.037
18.708,-0.650
18.712,-1.095
18.716,-1.577
18.720,-2.143
18.724,-2.138
18.728,-1.992
18.732,-1.738
18.736,-1.393
18.740,-0.945
18.744,-0.412
18.748,0.152
18.752,0.637
18.756,0.993
18.760,1.185
18.764,1.188
18.768,1.058
18.772,0.792
18.776,0.458
18.780,0.013
18.784,-0.530
18.788,-1.093
18.792,-1.583
18.796,-1.942
18.800,-2.138
18.804,-1.972
18.808,-1.732
18.812,-1.337
18.816,-0.407
18.820,0.142
18.824,0.623
18.828,0.990
18.832,1.177
18.836,1.190
18.840,1.038
18.844,0.787
18.848,0.453
18.852,-0.007
18.856,-0.532
18.860,-1.087
18.864,-1.580
18.868,-1.940
18.872,-2.127
18.876,-2.138
18.880,-1.698
18.884,-1.407
18.888,-0.973
18.892,-0.430
18.896,0.138
18.900,0.620
18.904,0.993
18.908,1.190
18.912,1.210
18.916,1.073
18.920,0.823
18.924,0.470
18.928,0.048
18.932,-0.562
18.936,-1.100
18.940,-1.617
18.944,-1.972
18.948,-2.167
18.952,-2.183
18.956,-2.045
18.960,-1.387
18.964,-0.407
18.968,0.130
18.972,0.620
18.976,0.988
18.980,1.188
18.984,1.212
18.988,1.087
18.992,0.850
18.996,0.512
19.000,0.062
19.004,-0.490
19.008,-1.065
19.012,-1.562
19.016,-1.935
19.020,-2.132
19.024,-2.150
19.028,-2.018
19.032,-1.760
19.036,-1.397
19.040,-0.328
19.044,0.657
19.048,1.008
19.052,1.192
19.056,1.210
19.060,1.073
19.064,0.825
19.068,0.472
19.072,0.037
19.076,-0.527
19.080,-1.097
19.084,-1.613
19.088,-1.962
19.092,-2.165
19.096,-2.178
19.100,-2.047
19.104,-1.792
19.108,-1.450
19.112,-0.993
19.116,-0.432
19.120,0.703
19.124,0.993
19.128,1.190
19.132,1.212
19.136,1.077
19.140,0.835
19.144,0.497
19.148,0.058
19.152,-0.505
19.156,-1.067
19.160,-1.575
19.164,-1.942
19.168,-2.145
19.172,-2.172
19.176,-2.047
19.180,-1.802
19.184,-1.462
19.188,-1.025
19.192,-0.490
19.196,0.072
19.200,0.983
19.204,1.140
19.208,1.167
19.212,1.032
19.216,0.787
19.220,0.460
19.224,0.037
19.228,-0.512
19.232,-1.065
19.236,-1.560
19.240,-1.923
19.244,-2.110
19.248,-2.132
19.252,-1.992
19.256,-1.742
19.260,-1.413
19.264,-0.978
19.268,-0.432
19.272,0.117
19.276,0.610
19.280,1.167
19.284,1.170
19.288,1.028
19.292,0.775
19.296,0.432
19.300,-0.005
19.304,-0.550
19.308,-1.105
19.312,-1.623
19.316,-1.958
19.320,-2.150
19.324,-2.167
19.328,-2.027
19.332,-1.785
19.336,-1.420
19.340,-0.988
19.344,-0.432
19.348,0.133
19.352,0.613
19.356,0.980
19.360,1.192
19.364,1.073
19.368,0.820
19.372,0.468
19.376,0.043
19.380,-0.537
19.384,-1.103
19.388,-1.617
19.392,-1.972
19.396,-2.178
19.400,-2.192
19.404,-2.058
19.408,-1.810
19.412,-1.460
19.416,-1.008
19.420,-0.448
19.424,0.128
19.428,0.620
19.432,0.988
19.436,1.190
19.440,1.058
19.444,0.843
19.448,0.500
19.452,0.055
19.456,-0.507
19.460,-1.067
19.464,-1.575
19.468,-1.942
19.472,-2.143
19.476,-2.172
19.480,-2.033
19.484,-1.792
19.488,-1.450
19.492,-1.010
19.496,-0.458
19.500,0.113
19.504,0.608
19.508,0.955
19.512,1.165
19.516,1.177
19.520,0.755
19.524,-0.018
19.528,-1.147
19.532,-1.605
19.536,-1.962
19.540,-2.163
19.544,-2.180
19.548,-2.045
19.552,-1.802
19.556,-1.458
19.560,-1.012
19.564,-0.458
19.568,0.102
19.572,0.598
19.576,0.958
19.580,1.177
19.584,1.208
19.588,1.075
19.592,0.830
19.596,0.477
19.600,-0.605
19.604,-1.607
19.608,-1.952
19.612,-2.163
19.616,-2.180
19.620,-2.042
19.624,-1.790
19.628,-1.448
19.632,-1.002
19.636,-0.455
19.640,0.117
19.644,0.613
19.648,0.978
19.652,1.183
19.656,1.212
19.660,1.087
19.664,0.833
19.668,0.495
19.672,0.058
19.676,-0.497
19.680,-1.630
19.684,-1.938
19.688,-2.152
19.692,-2.165
19.696,-2.038
19.700,-1.790
19.704,-1.458
19.708,-1.012
19.712,-0.453
19.716,0.117
19.720,0.608
19.724,0.973
19.728,1.177
19.732,1.192
19.736,1.065
19.740,0.828
19.744,0.477
19.748,0.058
19.752,-0.512
19.756,-1.073
19.760,-1.968
19.764,-2.123
19.768,-2.143
19.772,-2.013
19.776,-1.762
19.780,-1.417
19.784,-0.978
19.788,-0.427
19.792,0.133
19.796,0.627
19.800,0.993
19.804,1.202
19.808,1.225
19.812,1.097
19.816,0.848
19.820,0.507
19.824,0.068
19.828,-0.507
19.832,-1.070
19.836,-1.577
19.840,-2.172
19.844,-2.165
19.848,-2.033
19.852,-1.788
19.856,-1.427
19.860,-0.993
19.864,-0.432
19.868,0.133
19.872,0.623
19.876,0.998
19.880,1.205
19.884,1.228
19.888,1.093
19.892,0.848
19.896,0.500
19.900,0.060
19.904,-0.505
19.908,-1.073
19.912,-1.577
19.916,-1.938
19.920,-2.143
19.924,-2.022
19.928,-1.775
19.932,-1.420
19.936,-0.978
19.940,-0.427
19.944,0.142
19.948,0.637
19.952,0.990
19.956,1.188
19.960,1.218
19.964,1.087
19.968,0.835
19.972,0.500
19.976,0.055
19.980,-0.520
19.984,-1.085
19.988,-1.575
19.992,-1.950
19.996,-2.160
20.000,-2.020
20.004,-1.808
20.008,-1.468
20.012,-1.018
20.016,-0.468
20.020,0.098
20.024,0.608
20.028,0.980
20.032,1.177
20.036,1.195
20.040,1.073
20.044,0.820
20.048,0.472
20.052,0.048
20.056,-0.512
20.060,-1.067
20.064,-1.570
20.068,-1.933
20.072,-2.127
20.076,-2.143
20.080,-1.695
20.084,-1.405
20.088,-0.968
20.092,-0.432
20.096,0.145
20.100,0.623
20.104,1.005
20.108,1.188
20.112,1.218
20.116,1.093
20.120,0.848
20.124,0.507
20.128,0.070
20.132,-0.487
20.136,-1.067
20.140,-1.552
20.144,-1.927
20.148,-2.132
20.152,-2.152
20.156,-2.022
20.160,-1.367
20.164,-0.993
20.168,-0.450
20.172,0.135
20.176,0.618
20.180,0.980
20.184,1.177
20.188,1.198
20.192,1.067
20.196,0.820
20.200,0.475
20.204,0.052
20.208,-0.500
20.212,-1.087
20.216,-1.580
20.220,-1.948
20.224,-2.150
20.228,-2.178
20.232,-2.047
20.236,-1.802
20.240,-0.902
20.244,0.138
20.248,0.632
20.252,1.008
20.256,1.208
20.260,1.228
20.264,1.095
20.268,0.848
20.272,0.500
20.276,0.068
20.280,-0.487
20.284,-1.055
20.288,-1.562
20.292,-1.927
20.296,-2.132
20.300,-2.160
20.304,-2.022
20.308,-1.772
20.312,-1.423
20.316,-0.985
20.320,0.215
20.324,0.978
20.328,1.167
20.332,1.188
20.336,1.058
20.340,0.792
20.344,0.450
20.348,0.018
20.352,-0.535
20.356,-1.110
20.360,-1.615
20.364,-1.968
20.368,-2.167
20.372,-2.180
20.376,-2.035
20.380,-1.782
20.384,-1.445
20.388,-0.988
20.392,-0.448
20.396,0.133
20.400,1.015
20.404,1.185
20.408,1.180
20.412,1.058
20.416,0.770
20.420,0.417
20.424,0.018
20.428,-0.492
20.432,-1.065
20.436,-1.567
20.440,-1.927
20.444,-2.130
20.448,-2.150
20.452,-2.020
20.456,-1.782
20.460,-1.427
20.464,-0.975
20.468,-0.455
20.472,0.115
20.476,0.613
20.480,1.212
20.484,1.222
20.488,1.107
20.492,0.863
20.496,0.477
20.500,0.100
20.504,-0.445
20.508,-1.032
20.512,-1.530
20.516,-1.893
20.520,-2.107
20.524,-2.132
20.528,-2.013
20.532,-1.772
20.536,-1.427
20.540,-1.005
20.544,-0.463
20.548,0.113
20.552,0.608
20.556,0.978
20.560,1.198
20.564,1.077
20.568,0.838
20.572,0.500
20.576,0.062
20.580,-0.487
20.584,-1.058
20.588,-1.552
20.592,-1.923
20.596,-2.127
20.600,-2.147
20.604,-2.022
20.608,-1.778
20.612,-1.442
20.616,-1.008
20.620,-0.468
20.624,0.107
20.628,0.588
20.632,0.945
20.636,1.157
20.640,1.035
20.644,0.833
20.648,0.502
20.652,0.077
20.656,-0.463
20.660,-1.052
20.664,-1.548
20.668,-1.907
20.672,-2.127
20.676,-2.150
20.680,-2.022
20.684,-1.782
20.688,-1.442
20.692,-1.008
20.696,-0.463
20.700,0.115
20.704,0.608
20.708,0.958
20.712,1.177
20.716,1.208
20.720,0.780
20.724,0.475
20.728,0.018
20.732,-0.585
20.736,-1.607
20.740,-1.933
20.744,-2.138
20.748,-2.170
20.752,-2.042
20.756,-1.792
20.760,-1.452
20.764,-1.018
20.768,-0.482
20.772,0.102
20.776,0.593
20.780,0.955
20.784,1.173
20.788,1.205
20.792,1.077
20.796,0.835
20.800,-0.018
20.804,-0.465
20.808,-1.060
20.812,-1.565
20.816,-1.933
20.820,-2.167
20.824,-2.178
20.828,-2.033
20.832,-1.800
20.836,-1.458
20.840,-1.012
20.844,-0.458
20.848,0.113
20.852,0.655
20.856,1.008
20.860,1.205
20.864,1.220
20.868,1.095
20.872,0.848
20.876,0.502
20.880,-0.570
20.884,-1.567
20.888,-1.938
20.892,-2.143
20.896,-2.170
20.900,-2.033
20.904,-1.788
20.908,-1.448
20.912,-1.002
20.916,-0.458
20.920,0.113
20.924,0.610
20.928,0.978
20.932,1.173
20.936,1.198
20.940,1.073
20.944,0.833
20.948,0.477
20.952,0.068
20.956,-0.482
20.960,-1.633
20.964,-2.002
20.968,-2.138
20.972,-2.160
20.976,-2.038
20.980,-1.790
20.984,-1.452
20.988,-1.012
20.992,-0.485
20.996,0.102
21.000,0.598
21.004,0.955
21.008,1.167
21.012,1.190
21.016,1.058
21.020,0.818
21.024,0.468
21.028,0.060
21.032,-0.487
21.036,-1.062
21.040,-1.982
21.044,-2.143
21.048,-2.178
21.052,-2.045
21.056,-1.795
21.060,-1.455
21.064,-1.012
21.068,-0.482
21.072,0.117
21.076,0.608
21.080,0.978
21.084,1.188
21.088,1.212
21.092,1.077
21.096,0.828
21.100,0.475
21.104,0.048
21.108,-0.502
21.112,-1.093
21.116,-1.585
21.120,-2.178
21.124,-2.183
21.128,-2.050
21.132,-1.808
21.136,-1.465
21.140,-1.018
21.144,-0.443
21.148,0.113
21.152,0.598
21.156,0.958
21.160,1.177
21.164,1.212
21.168,1.087
21.172,0.853
21.176,0.512
21.180,0.092
21.184,-0.448
21.188,-1.028
21.192,-1.540
21.196,-1.900
21.200,-2.138
21.204,-2.030
21.208,-1.790
21.212,-1.452
21.216,-1.010
21.220,-0.468
21.224,0.102
21.228,0.613
21.232,0.988
21.236,1.208
21.240,1.228
21.244,1.103
21.248,0.863
21.252,0.525
21.256,0.092
21.260,-0.463
21.264,-1.048
21.268,-1.565
21.272,-1.940
21.276,-2.152
21.280,-2.042
21.284,-1.843
21.288,-1.500
21.292,-1.058
21.296,-0.500
21.300,0.065
21.304,0.588
21.308,0.953
21.312,1.177
21.316,1.218
21.320,1.103
21.324,0.863
21.328,0.535
21.332,0.100
21.336,-0.448
21.340,-1.030
21.344,-1.548
21.348,-1.930
21.352,-2.140
21.356,-2.178
21.360,-1.768
21.364,-1.470
21.368,-1.045
21.372,-0.507
21.376,0.068
21.380,0.583
21.384,0.943
21.388,1.167
21.392,1.195
21.396,1.075
21.400,0.833
21.404,0.497
21.408,0.068
21.412,-0.465
21.416,-1.050
21.420,-1.548
21.424,-1.907
21.428,-2.123
21.432,-2.163
21.436,-2.027
21.440,-1.380
21.444,-1.008
21.448,-0.485
21.452,0.098
21.456,0.608
21.460,0.958
21.464,1.185
21.468,1.215
21.472,1.077
21.476,0.833
21.480,0.497
21.484,0.062
21.488,-0.487
21.492,-1.062
21.496,-1.577
21.500,-1.942
21.504,-2.147
21.508,-2.188
21.512,-2.058
21.516,-1.815
21.520,-0.940
21.524,-0.497
21.528,0.087
21.532,0.590
21.536,0.945
21.540,1.167
21.544,1.185
21.548,1.060
21.552,0.815
21.556,0.475
21.560,0.058
21.564,-0.487
21.568,-1.052
21.572,-1.567
21.576,-1.938
21.580,-2.143
21.584,-2.178
21.588,-2.062
21.592,-1.825
21.596,-1.485
21.600,-0.415
21.604,0.072
21.608,0.588
21.612,0.950
21.616,1.175
21.620,1.212
21.624,1.062
21.628,0.825
21.632,0.505
21.636,0.072
21.640,-0.468
21.644,-1.052
21.648,-1.573
21.652,-1.948
21.656,-2.147
21.660,-2.178
21.664,-2.047
21.668,-1.808
21.672,-1.470
21.676,-1.028
21.680,0.172
21.684,0.950
21.688,1.175
21.692,1.215
21.696,1.097
21.700,0.863
21.704,0.540
21.708,0.113
21.712,-0.425
21.716,-1.010
21.720,-1.528
21.724,-1.897
21.728,-2.127
21.732,-2.163
21.736,-2.047
21.740,-1.805
21.744,-1.462
21.748,-1.022
21.752,-0.502
21.756,0.087
21.760,1.015
21.764,1.188
21.768,1.225
21.772,1.113
21.776,0.873
21.780,0.537
21.784,0.105
21.788,-0.443
21.792,-1.018
21.796,-1.538
21.800,-1.897
21.804,-2.120
21.808,-2.150
21.812,-2.027
21.816,-1.788
21.820,-1.452
21.824,-1.012
21.828,-0.487
21.832,0.090
21.836,0.588
21.840,1.183
21.844,1.192
21.848,1.073
21.852,0.848
21.856,0.512
21.860,0.092
21.864,-0.448
21.868,-1.015
21.872,-1.532
21.876,-1.897
21.880,-2.127
21.884,-2.165
21.888,-2.050
21.892,-1.812
21.896,-1.468
21.900,-1.030
21.904,-0.502
21.908,0.092
21.912,0.593
21.916,0.958
21.920,1.210
21.924,1.097
21.928,0.860
21.932,0.527
21.936,0.102
21.940,-0.448
21.944,-1.028
21.948,-1.542
21.952,-1.923
21.956,-2.132
21.960,-2.170
21.964,-2.047
21.968,-1.808
21.972,-1.458
21.976,-1.022
21.980,-0.497
21.984,0.077
21.988,0.588
21.992,0.953
21.996,1.183
22.000,1.062
22.004,0.858
22.008,0.527
22.012,0.072
22.016,-0.453
22.020,-1.025
22.024,-1.548
22.028,-1.923
22.032,-2.130
22.036,-2.167
22.040,-2.042
22.044,-1.812
22.048,-1.475
22.052,-1.048
22.056,-0.522
22.060,0.068
22.064,0.578
22.068,0.930
22.072,1.150
22.076,1.188
22.080,0.780
22.084,0.505
22.088,0.080
22.092,-0.453
22.096,-1.018
22.100,-1.545
22.104,-1.903
22.108,-2.125
22.112,-2.147
22.116,-2.022
22.120,-1.772
22.124,-1.427
22.128,-1.002
22.132,-0.463
22.136,0.100
22.140,0.598
22.144,0.953
22.148,1.167
22.152,1.202
22.156,1.087
22.160,0.448
22.164,0.092
22.168,-0.445
22.172,-1.018
22.176,-1.538
22.180,-1.897
22.184,-2.112
22.188,-2.147
22.192,-2.035
22.196,-1.805
22.200,-1.462
22.204,-1.028
22.208,-0.502
22.212,0.068
22.216,0.585
22.220,0.940
22.224,1.173
22.228,1.218
22.232,1.093
22.236,0.863
22.240,-0.013
22.244,-0.458
22.248,-1.042
22.252,-1.567
22.256,-1.938
22.260,-2.143
22.264,-2.183
22.268,-2.058
22.272,-1.820
22.276,-1.480
22.280,-1.032
22.284,-0.502
22.288,0.072
22.292,0.578
22.296,0.950
22.300,1.173
22.304,1.212
22.308,1.093
22.312,0.853
22.316,0.522
22.320,-0.532
22.324,-1.012
22.328,-1.512
22.332,-1.895
22.336,-2.107
22.340,-2.147
22.344,-2.027
22.348,-1.800
22.352,-1.458
22.356,-1.032
22.360,-0.500
22.364,0.080
22.368,0.588
22.372,0.978
22.376,1.188
22.380,1.222
22.384,1.107
22.388,0.865
22.392,0.525
22.396,0.095
22.400,-1.133
22.404,-1.940
22.408,-2.152
22.412,-2.178
22.416,-2.058
22.420,-1.790
22.424,-1.472
22.428,-1.048
22.432,-0.527
22.436,0.058
22.440,0.565
22.444,0.938
22.448,1.165
22.452,1.215
22.456,1.097
22.460,0.860
22.464,0.530
22.468,0.100
22.472,-0.575
22.476,-1.018
22.480,-1.962
22.484,-2.183
22.488,-2.062
22.492,-1.827
22.496,-1.488
22.500,-1.062
22.504,-0.527
22.508,0.052
22.512,0.550
22.516,0.930
22.520,1.157
22.524,1.208
22.528,1.095
22.532,0.863
22.536,0.540
22.540,0.115
22.544,-0.417
22.548,-0.990
22.552,-1.498
22.556,-1.883
22.560,-2.127
22.564,-2.022
22.568,-1.785
22.572,-1.462
22.576,-1.032
22.580,-0.507
22.584,0.060
22.588,0.552
22.592,0.927
22.596,1.143
22.600,1.188
22.604,1.077
22.608,0.858
22.612,0.527
22.616,0.107
22.620,-0.432
22.624,-1.008
22.628,-1.522
22.632,-1.897
22.636,-2.112
22.640,-2.005
22.644,-1.383
22.648,-1.030
22.652,-0.393
22.656,0.100
22.660,0.610
22.664,0.953
22.668,1.173
22.672,1.218
22.676,1.100
22.680,0.868
22.684,0.537
22.688,0.113
22.692,-0.422
22.696,-1.012
22.700,-1.538
22.704,-1.927
22.708,-2.143
22.712,-2.178
22.716,-2.062
22.720,-1.423
22.724,-1.048
22.728,-0.448
22.732,0.068
22.736,0.573
22.740,0.950
22.744,1.180
22.748,1.218
22.752,1.107
22.756,0.873
22.760,0.547
22.764,0.100
22.768,-0.395
22.772,-0.963
22.776,-1.462
22.780,-1.728
22.784,-2.053
22.788,-2.107
22.792,-1.988
22.796,-1.778
22.800,-0.935
22.804,0.233
22.808,0.980
22.812,1.188
22.816,1.228
22.820,1.117
22.824,0.877
22.828,0.547
22.832,0.113
22.836,-0.417
22.840,-1.002
22.844,-1.508
22.848,-1.895
22.852,-2.123
22.856,-2.165
22.860,-2.053
22.864,-1.823
22.868,-1.488
22.872,-1.058
22.876,-0.535
22.880,0.632
22.884,1.180
22.888,1.222
22.892,1.105
22.896,0.870
22.900,0.532
22.904,0.107
22.908,-0.432
22.912,-1.018
22.916,-1.525
22.920,-1.907
22.924,-2.138
22.928,-2.178
22.932,-2.060
22.936,-1.823
22.940,-1.482
22.944,-1.052
22.948,-0.527
22.952,0.050
22.956,0.557
22.960,1.192
22.964,1.222
22.968,1.113
22.972,0.877
22.976,0.542
22.980,0.117
22.984,-0.415
22.988,-0.988
22.992,-1.500
22.996,-1.900
23.000,-2.120
23.004,-2.167
23.008,-2.050
23.012,-1.817
23.016,-1.482
23.020,-1.045
23.024,-0.530
23.028,0.060
23.032,0.573
23.036,0.948
23.040,1.225
23.044,1.117
23.048,0.897
23.052,0.573
23.056,0.142
23.060,-0.388
23.064,-0.975
23.068,-1.492
23.072,-1.887
23.076,-2.123
23.080,-2.165
23.084,-2.050
23.088,-1.812
23.092,-1.472
23.096,-1.048
23.100,-0.520
23.104,0.068
23.108,0.573
23.112,0.953
23.116,1.180
23.120,1.070
23.124,0.815
23.128,0.532
23.132,0.117
23.136,-0.422
23.140,-1.002
23.144,-1.522
23.148,-1.903
23.152,-2.123
23.156,-2.163
23.160,-2.042
23.164,-1.815
23.168,-1.488
23.172,-1.050
23.176,-0.522
23.180,0.065
23.184,0.580
23.188,0.943
23.192,1.157
23.196,1.198
23.200,0.775
23.204,0.060
23.208,-0.432
23.212,-1.008
23.216,-1.522
23.220,-1.903
23.224,-2.123
23.228,-2.152
23.232,-2.038
23.236,-1.800
23.240,-1.475
23.244,-1.048
23.248,-0.532
23.252,0.048
23.256,0.552
23.260,0.932
23.264,1.165
23.268,1.208
23.272,1.097
23.276,0.865
23.280,0.037
23.284,-0.422
23.288,-1.008
23.292,-1.512
23.296,-1.903
23.300,-2.132
23.304,-2.183
23.308,-2.080
23.312,-1.853
23.316,-1.512
23.320,-1.087
23.324,-0.552
23.328,0.045
23.332,0.565
23.336,0.943
23.340,1.188
23.344,1.228
23.348,1.117
23.352,0.887
23.356,0.568
23.360,-0.465
23.364,-0.935
23.368,-1.458
23.372,-1.845
23.376,-2.085
23.380,-2.135
23.384,-2.027
23.388,-1.805
23.392,-1.468
23.396,-1.048
23.400,-0.522
23.404,0.058
23.408,0.547
23.412,0.927
23.416,1.147
23.420,1.185
23.424,1.058
23.428,0.823
23.432,0.492
23.436,0.068
23.440,-1.147
23.444,-1.663
23.448,-2.143
23.452,-2.170
23.456,-2.035
23.460,-1.788
23.464,-1.450
23.468,-1.012
23.472,-0.492
23.476,0.092
23.480,0.593
23.484,0.978
23.488,1.192
23.492,1.228
23.496,1.107
23.500,0.870
23.504,0.527
23.508,0.102
23.512,-0.432
23.516,-1.020
23.520,-1.978
23.524,-2.192
23.528,-2.087
23.532,-1.843
23.536,-1.460
23.540,-1.032
23.544,-0.527
23.548,0.062
23.552,0.578
23.556,0.973
23.560,1.208
23.564,1.245
23.568,1.137
23.572,0.897
23.576,0.568
23.580,0.147
23.584,-0.393
23.588,-0.978
23.592,-1.498
23.596,-1.883
23.600,-2.147
23.604,-2.027
23.608,-1.792
23.612,-1.458
23.616,-1.022
23.620,-0.502
23.624,0.068
23.628,0.568
23.632,0.935
23.636,1.157
23.640,1.212
23.644,1.087
23.648,0.855
23.652,0.527
23.656,0.102
23.660,-0.427
23.664,-1.008
23.668,-1.525
23.672,-1.903
23.676,-2.132
23.680,-2.020
23.684,-1.815
23.688,-1.472
23.692,-1.042
23.696,-0.512
23.700,0.062
23.704,0.570
23.708,0.943
23.712,1.173
23.716,1.218
23.720,1.103
23.724,0.868
23.728,0.527
23.732,0.105
23.736,-0.432
23.740,-1.012
23.744,-1.535
23.748,-1.927
23.752,-2.147
23.756,-2.183
23.760,-1.780
23.764,-1.492
23.768,-1.055
23.772,-0.515
23.776,0.068
23.780,0.573
23.784,0.948
23.788,1.177
23.792,1.220
23.796,1.105
23.800,0.875
23.804,0.547
23.808,0.133
23.812,-0.405
23.816,-0.983
23.820,-1.502
23.824,-1.887
23.828,-2.127
23.832,-2.172
23.836,-2.062
23.840,-1.448
23.844,-1.083
23.848,-0.568
23.852,0.020
23.856,0.527
23.860,0.907
23.864,1.145
23.868,1.190
23.872,1.077
23.876,0.853
23.880,0.527
23.884,0.107
23.888,-0.417
23.892,-1.000
23.896,-1.512
23.900,-1.893
23.904,-2.112
23.908,-2.163
23.912,-2.047
23.916,-1.812
23.920,-0.978
23.924,-0.537
23.928,0.058
23.932,0.568
23.936,0.912
23.940,1.157
23.944,1.212
23.948,1.107
23.952,0.892
23.956,0.555
23.960,0.140
23.964,-0.398
23.968,-0.983
23.972,-1.500
23.976,-1.887
23.980,-2.127
23.984,-2.178
23.988,-2.085
23.992,-1.853
23.996,-1.515
24.000,-0.482
24.004,0.018
24.008,0.527
24.012,0.902
24.016,1.143
24.020,1.195
24.024,1.097
24.028,0.870
24.032,0.542
24.036,0.130
24.040,-0.415
24.044,-0.993
24.048,-1.520
24.052,-1.893
24.056,-2.127
24.060,-2.178
24.064,-2.060
24.068,-1.827
24.072,-1.492
24.076,-1.062
24.080,0.135
24.084,0.978
24.088,1.175
24.092,1.218
24.096,1.100
24.100,0.873
24.104,0.525
24.108,0.098
24.112,-0.443
24.116,-1.022
24.120,-1.532
24.124,-1.907
24.128,-2.147
24.132,-2.178
24.136,-2.065
24.140,-1.833
24.144,-1.492
24.148,-1.062
24.152,-0.542
24.156,0.043
24.160,0.958
24.164,1.188
24.168,1.077
24.172,0.848
24.176,0.517
24.180,0.110
24.184,-0.420
24.188,-0.993
24.192,-1.508
24.196,-1.893
24.200,-2.130
24.204,-2.183
24.208,-2.067
24.212,-1.847
24.216,-1.508
24.220,-1.087
24.224,-0.562
24.228,0.020
24.232,0.547
24.236,0.917
24.240,1.198
24.244,1.103
24.248,0.873
24.252,0.550
24.256,0.138
24.260,-0.393
24.264,-0.990
24.268,-1.508
24.272,-1.900
24.276,-2.143
24.280,-2.197
24.284,-2.092
24.288,-1.857
24.292,-1.525
24.296,-1.097
24.300,-0.568
24.304,0.037
24.308,0.550
24.312,0.958
24.316,1.177
24.320,1.095
24.324,0.897
24.328,0.568
24.332,0.138
24.336,-0.393
24.340,-0.978
24.344,-1.492
24.348,-1.877
24.352,-2.127
24.356,-2.172
24.360,-2.062
24.364,-1.827
24.368,-1.508
24.372,-1.087
24.376,-0.568
24.380,0.018
24.384,0.537
24.388,0.912
24.392,1.150
24.396,1.210
24.400,0.835
24.404,0.570
24.408,0.152
24.412,-0.372
24.416,-0.965
24.420,-1.488
24.424,-1.873
24.428,-2.105
24.432,-2.163
24.436,-2.047
24.440,-1.817
24.444,-1.492
24.448,-1.067
24.452,-0.542
24.456,0.037
24.460,0.550
24.464,0.930
24.468,1.173
24.472,1.228
24.476,1.137
24.480,0.497
24.484,0.138
24.488,-0.403
24.492,-0.978
24.496,-1.502
24.500,-1.893
24.504,-2.125
24.508,-2.167
24.512,-2.062
24.516,-1.840
24.520,-1.502
24.524,-1.077
24.528,-0.568
24.532,0.018
24.536,0.537
24.540,0.922
24.544,1.155
24.548,1.212
24.552,1.103
24.556,0.887
24.560,0.068
24.564,-1.093
24.568,-1.508
24.572,-1.923
24.576,-2.132
24.580,-2.188
24.584,-2.067
24.588,-1.853
24.592,-1.522
24.596,-1.093
24.600,-0.568
24.604,0.020
24.608,0.532
24.612,0.912
24.616,1.167
24.620,1.218
24.624,1.113
24.628,0.887
24.632,0.568
24.636,0.152
24.640,-1.055
24.644,-1.490
24.648,-1.875
24.652,-2.105
24.656,-2.163
24.660,-2.047
24.664,-1.827
24.668,-1.498
24.672,-1.067
24.676,-0.542
24.680,0.030
24.684,0.542
24.688,0.912
24.692,1.153
24.696,1.198
24.700,1.077
24.704,0.863
24.708,0.542
24.712,0.117
24.716,-0.407
24.720,-1.573
24.724,-1.948
24.728,-2.127
24.732,-2.170
24.736,-2.050
24.740,-1.820
24.744,-1.485
24.748,-1.062
24.752,-0.535
24.756,0.043
24.760,0.547
24.764,0.932
24.768,1.170
24.772,1.218
24.776,1.110
24.780,0.885
24.784,0.547
24.788,0.135
24.792,-0.393
24.796,-0.980
24.800,-1.952
24.804,-2.138
24.808,-2.197
24.812,-2.107
24.816,-1.867
24.820,-1.535
24.824,-1.097
24.828,-0.583
24.832,-0.013
24.836,0.510
24.840,0.897
24.844,1.120
24.848,1.188
24.852,1.087
24.856,0.855
24.860,0.530
24.864,0.117
24.868,-0.407
24.872,-0.983
24.876,-1.498
24.880,-2.120
24.884,-2.060
24.888,-1.843
24.892,-1.508
24.896,-1.095
24.900,-0.580
24.904,-0.015
24.908,0.507
24.912,0.877
24.916,1.113
24.920,1.173
24.924,1.067
24.928,0.853
24.932,0.532
24.936,0.133
24.940,-0.395
24.944,-0.973
24.948,-1.495
24.952,-1.885
24.956,-2.118
24.960,-2.033
24.964,-1.782
24.968,-1.490
24.972,-1.095
24.976,-0.573
24.980,-0.007
24.984,0.525
24.988,0.902
24.992,1.133
24.996,1.183
25.000,1.077
25.004,0.860
25.008,0.532
25.012,0.128
25.016,-0.407
25.020,-0.983
25.024,-1.495
25.028,-1.873
25.032,-2.100
25.036,-2.163
25.040,-1.778
25.044,-1.420
25.048,-1.073
25.052,-0.547
25.056,0.020
25.060,0.532
25.064,0.910
25.068,1.153
25.072,1.212
25.076,1.117
25.080,0.897
25.084,0.552
25.088,0.177
25.092,-0.362
25.096,-0.945
25.100,-1.470
25.104,-1.870
25.108,-2.120
25.112,-2.183
25.116,-2.092
25.120,-1.482
25.124,-1.127
25.128,-0.608
25.132,-0.033
25.136,0.510
25.140,0.902
25.144,1.150
25.148,1.212
25.152,1.107
25.156,0.887
25.160,0.570
25.164,0.172
25.168,-0.362
25.172,-0.932
25.176,-1.465
25.180,-1.850
25.184,-2.092
25.188,-2.152
25.192,-2.053
25.196,-1.830
25.200,-1.012
25.204,-0.578
25.208,-0.010
25.212,0.530
25.216,0.912
25.220,1.157
25.224,1.212
25.228,1.113
25.232,0.892
25.236,0.573
25.240,0.152
25.244,-0.372
25.248,-0.948
25.252,-1.472
25.256,-1.863
25.260,-2.100
25.264,-2.163
25.268,-2.065
25.272,-1.843
25.276,-1.512
25.280,-0.492
25.284,0.015
25.288,0.537
25.292,0.930
25.296,1.173
25.300,1.225
25.304,1.117
25.308,0.900
25.312,0.578
25.316,0.158
25.320,-0.372
25.324,-0.945
25.328,-1.488
25.332,-1.870
25.336,-2.107
25.340,-2.172
25.344,-2.065
25.348,-1.843
25.352,-1.512
25.356,-1.093
25.360,0.092
25.364,0.525
25.368,0.912
25.372,1.163
25.376,1.220
25.380,1.117
25.384,0.900
25.388,0.585
25.392,0.177
25.396,-0.362
25.400,-0.943
25.404,-1.482
25.408,-1.857
25.412,-2.103
25.416,-2.172
25.420,-2.083
25.424,-1.850
25.428,-1.512
25.432,-1.095
25.436,-0.570
25.440,0.618
25.444,0.932
25.448,1.183
25.452,1.235
25.456,1.145
25.460,0.910
25.464,0.585
25.468,0.172
25.472,-0.417
25.476,-0.973
25.480,-1.468
25.484,-1.860
25.488,-2.100
25.492,-2.163
25.496,-2.053
25.500,-1.817
25.504,-1.498
25.508,-1.070
25.512,-0.552
25.516,0.022
25.520,0.978
25.524,1.163
25.528,1.208
25.532,1.097
25.536,0.870
25.540,0.545
25.544,0.133
25.548,-0.395
25.552,-0.973
25.556,-1.498
25.560,-1.887
25.564,-2.130
25.568,-2.180
25.572,-2.083
25.576,-1.845
25.580,-1.502
25.584,-1.083
25.588,-0.547
25.592,0.028
25.596,0.547
25.600,1.208
25.604,1.135
25.608,0.897
25.612,0.568
25.616,0.152
25.620,-0.378
25.624,-0.968
25.628,-1.492
25.632,-1.883
25.636,-2.135
25.640,-2.183
25.644,-2.087
25.648,-1.853
25.652,-1.530
25.656,-1.103
25.660,-0.593
25.664,-0.028
25.668,0.497
25.672,0.887
25.676,1.117
25.680,1.067
25.684,0.512
25.688,0.135
25.692,-0.388
25.696,-0.973
25.700,-1.488
25.704,-1.883
25.708,-2.127
25.712,-2.178
25.716,-2.080
25.720,-1.850
25.724,-1.522
25.728,-1.123
25.732,-0.590
25.736,-0.028
25.740,0.500
25.744,0.887
25.748,1.117
25.752,1.177
25.756,1.077
25.760,0.475
25.764,0.142
25.768,-0.378
25.772,-0.943
25.776,-1.465
25.780,-1.847
25.784,-2.090
25.788,-2.145
25.792,-2.035
25.796,-1.815
25.800,-1.482
25.804,-1.058
25.808,-0.542
25.812,0.043
25.816,0.557
25.820,0.938
25.824,1.180
25.828,1.238
25.832,1.143
25.836,0.910
25.840,0.095
25.844,-0.365
25.848,-0.938
25.852,-1.468
25.856,-1.873
25.860,-2.112
25.864,-2.170
25.868,-2.067
25.872,-1.850
25.876,-1.522
25.880,-1.093
25.884,-0.583
25.888,-0.018
25.892,0.512
25.896,0.905
25.900,1.147
25.904,1.212
25.908,1.113
25.912,0.897
25.916,0.578
25.920,-0.448
25.924,-0.927
25.928,-1.452
25.932,-1.843
25.936,-2.083
25.940,-2.132
25.944,-2.030
25.948,-1.808
25.952,-1.488
25.956,-1.067
25.960,-0.552
25.964,0.018
25.968,0.527
25.972,0.910
25.976,1.147
25.980,1.210
25.984,1.105
25.988,0.882
25.992,0.552
25.996,0.152
26.000,-1.042
26.004,-1.472
26.008,-1.870
26.012,-2.127
26.016,-2.203
26.020,-2.107
26.024,-1.885
26.028,-1.548
26.032,-1.130
26.036,-0.593
26.040,-0.028
26.044,0.510
26.048,0.897
26.052,1.155
26.056,1.215
26.060,1.107
26.064,0.897
26.068,0.580
26.072,0.172
26.076,-0.362
26.080,-1.540
26.084,-1.863
26.088,-2.120
26.092,-2.183
26.096,-2.087
26.100,-1.860
26.104,-1.530
26.108,-1.113
26.112,-0.588
26.116,-0.022
26.120,0.510
26.124,0.897
26.128,1.120
26.132,1.188
26.136,1.090
26.140,0.868
26.144,0.550
26.148,0.140
26.152,-0.378
26.156,-0.963
26.160,-1.940
26.164,-2.130
26.168,-2.178
26.172,-2.083
26.176,-1.843
26.180,-1.512
26.184,-1.093
26.188,-0.578
26.192,-0.007
26.196,0.522
26.200,0.907
26.204,1.153
26.208,1.218
26.212,1.110
26.216,0.887
26.220,0.568
26.224,0.150
26.228,-0.505
26.232,-0.948
26.236,-1.468
26.240,-2.127
26.244,-2.163
26.248,-2.055
26.252,-1.830
26.256,-1.508
26.260,-1.083
26.264,-0.562
26.268,0.043
26.272,0.540
26.276,0.927
26.280,1.183
26.284,1.252
26.288,1.147
26.292,0.932
26.296,0.598
26.300,0.193
26.304,-0.350
26.308,-0.932
26.312,-1.470
26.316,-1.863
26.320,-2.172
26.324,-1.867
26.328,-1.542
26.332,-1.137
26.336,-0.613
26.340,-0.043
26.344,0.492
26.348,0.887
26.352,1.143
26.356,1.215
26.360,1.117
26.364,0.902
26.368,0.583
26.372,0.182
26.376,-0.343
26.380,-0.915
26.384,-1.455
26.388,-1.853
26.392,-2.100
26.396,-2.170
26.400,-1.817
26.404,-1.538
26.408,-1.127
26.412,-0.588
26.416,-0.025
26.420,0.512
26.424,0.907
26.428,1.153
26.432,1.222
26.436,1.113
26.440,0.897
26.444,0.578
26.448,0.152
26.452,-0.378
26.456,-0.965
26.460,-1.488
26.464,-1.885
26.468,-2.123
26.472,-2.180
26.476,-2.087
26.480,-1.472
26.484,-1.123
26.488,-0.593
26.492,-0.028
26.496,0.497
26.500,0.882
26.504,1.133
26.508,1.177
26.512,1.065
26.516,0.848
26.520,0.517
26.524,0.115
26.528,-0.412
26.532,-0.983
26.536,-1.508
26.540,-1.903
26.544,-2.147
26.548,-2.212
26.552,-2.112
26.556,-1.873
26.560,-1.042
26.564,-0.603
26.568,-0.033
26.572,0.497
26.576,0.897
26.580,1.145
26.584,1.208
26.588,1.103
26.592,0.877
26.596,0.557
26.600,0.152
26.604,-0.372
26.608,-0.943
26.612,-1.468
26.616,-1.857
26.620,-2.103
26.624,-2.167
26.628,-2.067
26.632,-1.850
26.636,-1.522
26.640,-0.535
26.644,-0.062
26.648,0.468
26.652,0.873
26.656,1.133
26.660,1.208
26.664,1.103
26.668,0.887
26.672,0.568
26.676,0.155
26.680,-0.378
26.684,-0.945
26.688,-1.475
26.692,-1.860
26.696,-2.103
26.700,-2.167
26.704,-2.083
26.708,-1.853
26.712,-1.532
26.716,-1.110
26.720,0.077
26.724,0.512
26.728,0.910
26.732,1.167
26.736,1.218
26.740,1.113
26.744,0.892
26.748,0.573
26.752,0.172
26.756,-0.362
26.760,-0.932
26.764,-1.465
26.768,-1.860
26.772,-2.103
26.776,-2.172
26.780,-2.083
26.784,-1.843
26.788,-1.508
26.792,-1.093
26.796,-0.575
26.800,0.588
26.804,0.907
26.808,1.165
26.812,1.228
26.816,1.140
26.820,0.905
26.824,0.588
26.828,0.180
26.832,-0.338
26.836,-0.907
26.840,-1.448
26.844,-1.827
26.848,-2.083
26.852,-2.143
26.856,-2.053
26.860,-1.823
26.864,-1.508
26.868,-1.093
26.872,-0.570
26.876,0.018
26.880,0.990
26.884,1.208
26.888,1.252
26.892,1.143
26.896,0.550
26.900,0.170
26.904,-0.350
26.908,-0.932
26.912,-1.472
26.916,-1.865
26.920,-2.123
26.924,-2.183
26.928,-2.092
26.932,-1.853
26.936,-1.525
26.940,-1.103
26.944,-0.575
26.948,0.013
26.952,0.530
26.956,0.917
26.960,1.222
26.964,1.140
26.968,0.902
26.972,0.583
26.976,0.182
26.980,-0.350
26.984,-0.938
26.988,-1.468
26.992,-1.867
26.996,-2.110
27.000,-2.180
27.004,-2.092
27.008,-1.857
27.012,-1.535
27.016,-1.133
27.020,-0.570
27.024,-0.033
27.028,0.502
27.032,0.897
27.036,1.155
27.040,1.018
27.044,0.550
27.048,0.182
27.052,-0.352
27.056,-0.925
27.060,-1.462
27.064,-1.863
27.068,-2.107
27.072,-2.167
27.076,-2.067
27.080,-1.843
27.084,-1.512
27.088,-1.097
27.092,-0.580
27.096,-0.022
27.100,0.505
27.104,0.897
27.108,1.143
27.112,1.210
27.116,1.107
27.120,0.515
27.124,0.175
27.128,-0.362
27.132,-0.930
27.136,-1.470
27.140,-1.860
27.144,-2.123
27.148,-2.183
27.152,-2.098
27.156,-1.865
27.160,-1.542
27.164,-1.135
27.168,-0.605
27.172,-0.030
27.176,0.502
27.180,0.897
27.184,1.153
27.188,1.228
27.192,1.143
27.196,0.915
27.200,0.128
27.204,-0.305
27.208,-0.895
27.212,-1.417
27.216,-1.817
27.220,-2.065
27.224,-2.140
27.228,-2.053
27.232,-1.843
27.236,-1.532
27.240,-1.125
27.244,-0.593
27.248,-0.040
27.252,0.507
27.256,0.905
27.260,1.157
27.264,1.222
27.268,1.143
27.272,0.917
27.276,0.595
27.280,-0.427
27.284,-1.032
27.288,-1.470
27.292,-1.857
27.296,-2.107
27.300,-2.178
27.304,-2.087
27.308,-1.857
27.312,-1.538
27.316,-1.103
27.320,-0.598
27.324,-0.028
27.328,0.507
27.332,0.905
27.336,1.155
27.340,1.222
27.344,1.137
27.348,0.905
27.352,0.588
27.356,0.193
27.360,-1.010
27.364,-1.548
27.368,-1.845
27.372,-2.095
27.376,-2.155
27.380,-2.053
27.384,-1.843
27.388,-1.522
27.392,-1.103
27.396,-0.588
27.400,-0.033
27.404,0.502
27.408,0.912
27.412,1.147
27.416,1.218
27.420,1.137
27.424,0.902
27.428,0.568
27.432,0.180
27.436,-0.338
