Czas(s),EKG_Surowe(mV),PPG_Surowe(ADC)
0.000,1.232,3116
0.004,0.993,3116
0.008,0.590,3116
0.012,0.117,3116
0.016,-0.383,3107
0.020,-0.897,3107
0.024,-1.375,3107
0.028,-1.748,3107
0.032,-1.968,3107
0.036,-2.035,3107
0.040,-1.933,3107
0.044,-1.663,3107
0.048,-1.250,3107
0.052,-0.775,3107
0.056,-0.285,3121
0.060,0.223,3121
0.064,0.688,3121
0.068,1.060,3121
0.072,1.302,3121
0.076,1.377,3121
0.080,0.938,3121
0.084,0.562,3121
0.088,0.095,3121
0.092,-0.432,3114
0.096,-0.912,3114
0.100,-1.380,3114
0.104,-1.748,3114
0.108,-1.972,3114
0.112,-2.030,3114
0.116,-1.927,3114
0.120,-1.653,3114
0.124,-1.232,3114
0.128,-0.762,3114
0.132,-0.273,3123
0.136,0.233,3123
0.140,0.708,3123
0.144,1.087,3123
0.148,1.323,3123
0.152,1.393,3123
0.156,1.298,3123
0.160,0.542,3123
0.164,-0.502,3132
0.168,-1.415,3132
0.172,-1.748,3132
0.176,-1.962,3132
0.180,-2.013,3132
0.184,-1.893,3132
0.188,-1.623,3132
0.192,-1.202,3132
0.196,-0.723,3132
0.200,-0.253,3112
0.204,0.258,3112
0.208,0.728,3112
0.212,1.097,3112
0.216,1.337,3112
0.220,1.397,3112
0.224,1.305,3112
0.228,1.022,3112
0.232,0.618,3112
0.236,0.145,3112
0.240,-0.945,3126
0.244,-1.722,3126
0.248,-1.942,3126
0.252,-2.007,3126
0.256,-1.897,3126
0.260,-1.640,3126
0.264,-1.230,3126
0.268,-0.765,3126
0.272,-0.270,3118
0.276,0.228,3118
0.280,0.695,3118
0.284,1.062,3118
0.288,1.298,3118
0.292,1.357,3118
0.296,1.238,3118
0.300,0.980,3118
0.304,0.575,3118
0.308,0.098,3118
0.312,-0.393,3124
0.316,-0.902,3124
0.320,-1.792,3124
0.324,-1.968,3124
0.328,-2.027,3124
0.332,-1.907,3124
0.336,-1.655,3124
0.340,-1.252,3124
0.344,-0.785,3124
0.348,-0.302,3133
0.352,0.207,3133
0.356,0.677,3133
0.360,1.052,3133
0.364,1.272,3133
0.368,1.357,3133
0.372,1.248,3133
0.376,0.988,3133
0.380,0.590,3133
0.384,0.117,3133
0.388,-0.375,3124
0.392,-0.892,3124
0.396,-1.350,3124
0.400,-1.970,3124
0.404,-2.018,3124
0.408,-1.923,3124
0.412,-1.655,3124
0.416,-1.250,3124
0.420,-0.777,3124
0.424,-0.282,3108
0.428,0.225,3108
0.432,0.695,3108
0.436,1.073,3108
0.440,1.327,3108
0.444,1.390,3108
0.448,1.270,3108
0.452,1.010,3108
0.456,0.613,3108
0.460,0.152,3108
0.464,-0.352,3098
0.468,-0.868,3098
0.472,-1.345,3098
0.476,-1.728,3098
0.480,-2.018,3098
0.484,-1.930,3098
0.488,-1.657,3098
0.492,-1.252,3098
0.496,-0.780,3098
0.500,-0.287,3142
0.504,0.225,3142
0.508,0.698,3142
0.512,1.073,3142
0.516,1.308,3142
0.520,1.387,3142
0.524,1.272,3142
0.528,1.018,3142
0.532,0.615,3142
0.536,0.138,3142
0.540,-0.367,3125
0.544,-0.882,3125
0.548,-1.365,3125
0.552,-1.738,3125
0.556,-1.968,3125
0.560,-1.890,3125
0.564,-1.613,3125
0.568,-1.262,3125
0.572,-0.812,3125
0.576,-0.260,3127
0.580,0.235,3127
0.584,0.698,3127
0.588,1.070,3127
0.592,1.312,3127
0.596,1.393,3127
0.600,1.147,3127
0.604,0.573,3127
0.608,0.155,3127
0.612,-0.345,3122
0.616,-0.870,3122
0.620,-1.347,3122
0.624,-1.728,3122
0.628,-1.950,3122
0.632,-2.025,3122
0.636,-1.925,3122
0.640,-1.190,3122
0.644,-0.713,3122
0.648,-0.290,3132
0.652,0.225,3132
0.656,0.695,3132
0.660,1.077,3132
0.664,1.327,3132
0.668,1.397,3132
0.672,1.308,3132
0.676,1.030,3132
0.680,0.627,3132
0.684,0.158,3132
0.688,-0.345,3143
0.692,-0.868,3143
0.696,-1.337,3143
0.700,-1.715,3143
0.704,-1.948,3143
0.708,-2.018,3143
0.712,-1.923,3143
0.716,-1.655,3143
0.720,-0.703,3143
0.724,-0.273,3118
0.728,0.235,3118
0.732,0.700,3118
0.736,1.077,3118
0.740,1.310,3118
0.744,1.377,3118
0.748,1.252,3118
0.752,0.983,3118
0.756,0.583,3118
0.760,0.113,3118
0.764,-0.385,3119
0.768,-0.905,3119
0.772,-1.377,3119
0.776,-1.762,3119
0.780,-1.978,3119
0.784,-2.042,3119
0.788,-1.942,3119
0.792,-1.673,3119
0.796,-1.265,3119
0.800,-0.217,3136
0.804,0.703,3136
0.808,1.080,3136
0.812,1.333,3136
0.816,1.397,3136
0.820,1.302,3136
0.824,1.025,3136
0.828,0.630,3136
0.832,0.158,3136
0.836,-0.347,3139
0.840,-0.868,3139
0.844,-1.340,3139
0.848,-1.722,3139
0.852,-1.950,3139
0.856,-2.022,3139
0.860,-1.927,3139
0.864,-1.653,3139
0.868,-1.248,3139
0.872,-0.777,3139
0.876,-0.278,3139
0.880,0.760,3123
0.884,1.312,3123
0.888,1.377,3123
0.892,1.268,3123
0.896,0.998,3123
0.900,0.598,3123
0.904,0.133,3123
0.908,-0.367,3123
0.912,-0.882,3123
0.916,-1.353,3123
0.920,-1.730,3123
0.924,-1.952,3123
0.928,-2.018,3123
0.932,-1.907,3123
0.936,-1.655,3123
0.940,-1.258,3123
0.944,-0.782,3123
0.948,-0.297,3123
0.952,0.207,3111
0.956,0.688,3111
0.960,1.323,3111
0.964,1.375,3111
0.968,1.260,3111
0.972,0.995,3111
0.976,0.588,3111
0.980,0.117,3111
0.984,-0.372,3111
0.988,-0.880,3104
0.992,-1.367,3104
0.996,-1.740,3104
1.000,-1.968,3104
1.004,-2.033,3104
1.008,-1.942,3104
1.012,-1.673,3104
1.016,-1.290,3104
1.020,-0.812,3104
1.024,-0.307,3104
1.028,0.195,3117
1.032,0.685,3117
1.036,1.058,3117
1.040,1.367,3117
1.044,1.252,3117
1.048,0.993,3117
1.052,0.595,3117
1.056,0.138,3117
1.060,-0.378,3117
1.064,-0.892,3115
1.068,-1.375,3115
1.072,-1.742,3115
1.076,-1.972,3115
1.080,-2.042,3115
1.084,-1.942,3115
1.088,-1.667,3115
1.092,-1.262,3115
1.096,-0.805,3115
1.100,-0.297,3115
1.104,0.198,3113
1.108,0.685,3113
1.112,1.052,3113
1.116,1.292,3113
1.120,1.210,3113
1.124,0.975,3113
1.128,0.575,3113
1.132,0.113,3113
1.136,-0.385,3113
1.140,-0.895,3116
1.144,-1.367,3116
1.148,-1.732,3116
1.152,-1.952,3116
1.156,-2.027,3116
1.160,-1.927,3116
1.164,-1.667,3116
1.168,-1.290,3116
1.172,-0.818,3116
1.176,-0.333,3116
1.180,0.182,3116
1.184,0.667,3116
1.188,1.048,3116
1.192,1.270,3116
1.196,1.367,3116
1.200,0.927,3116
1.204,0.593,3116
1.208,0.130,3116
1.212,-0.365,3116
1.216,-0.868,3124
1.220,-1.353,3124
1.224,-1.712,3124
1.228,-1.948,3124
1.232,-2.022,3124
1.236,-1.927,3124
1.240,-1.660,3124
1.244,-1.262,3124
1.248,-0.802,3124
1.252,-0.297,3124
1.256,0.212,3117
1.260,0.693,3117
1.264,1.067,3117
1.268,1.312,3117
1.272,1.385,3117
1.276,1.298,3117
1.280,0.552,3117
1.284,0.152,3117
1.288,-0.343,3117
1.292,-0.863,3108
1.296,-1.353,3108
1.300,-1.738,3108
1.304,-1.968,3108
1.308,-2.038,3108
1.312,-1.938,3108
1.316,-1.683,3108
1.320,-1.292,3108
1.324,-0.810,3108
1.328,-0.307,3108
1.332,0.207,3127
1.336,0.688,3127
1.340,1.062,3127
1.344,1.302,3127
1.348,1.370,3127
1.352,1.252,3127
1.356,0.988,3127
1.360,0.048,3127
1.364,-0.383,3127
1.368,-0.978,3118
1.372,-1.738,3118
1.376,-1.955,3118
1.380,-2.018,3118
1.384,-1.907,3118
1.388,-1.647,3118
1.392,-1.232,3118
1.396,-0.767,3118
1.400,-0.275,3118
1.404,0.228,3129
1.408,0.700,3129
1.412,1.067,3129
1.416,1.302,3129
1.420,1.377,3129
1.424,1.262,3129
1.428,1.005,3129
1.432,0.613,3129
1.436,0.138,3129
1.440,-0.950,3140
1.444,-1.742,3140
1.448,-1.978,3140
1.452,-2.053,3140
1.456,-1.965,3140
1.460,-1.698,3140
1.464,-1.302,3140
1.468,-0.828,3140
1.472,-0.338,3140
1.476,0.175,3128
1.480,0.655,3128
1.484,1.038,3128
1.488,1.268,3128
1.492,1.353,3128
1.496,1.248,3128
1.500,0.993,3128
1.504,0.593,3128
1.508,0.117,3128
1.512,-0.383,3128
1.516,-0.892,3130
1.520,-1.792,3130
1.524,-1.972,3130
1.528,-2.033,3130
1.532,-1.942,3130
1.536,-1.688,3130
1.540,-1.298,3130
1.544,-0.823,3130
1.548,-0.328,3130
1.552,0.180,3132
1.556,0.662,3132
1.560,1.048,3132
1.564,1.275,3132
1.568,1.367,3132
1.572,1.265,3132
1.576,0.998,3132
1.580,0.598,3132
1.584,0.140,3132
1.588,-0.365,3132
1.592,-0.865,3129
1.596,-1.367,3129
1.600,-1.988,3129
1.604,-2.047,3129
1.608,-1.952,3129
1.612,-1.698,3129
1.616,-1.305,3129
1.620,-0.833,3129
1.624,-0.328,3129
1.628,0.188,3117
1.632,0.675,3117
1.636,1.058,3117
1.640,1.302,3117
1.644,1.383,3117
1.648,1.268,3117
1.652,1.012,3117
1.656,0.618,3117
1.660,0.147,3117
1.664,-0.347,3117
1.668,-0.858,3141
1.672,-1.345,3141
1.676,-1.722,3141
1.680,-2.030,3141
1.684,-1.942,3141
1.688,-1.683,3141
1.692,-1.292,3141
1.696,-0.823,3141
1.700,-0.328,3141
1.704,0.190,3131
1.708,0.688,3131
1.712,1.058,3131
1.716,1.300,3131
1.720,1.380,3131
1.724,1.262,3131
1.728,1.015,3131
1.732,0.593,3131
1.736,0.147,3131
1.740,-0.345,3131
1.744,-0.865,3129
1.748,-1.363,3129
1.752,-1.738,3129
1.756,-1.978,3129
1.760,-1.927,3129
1.764,-1.700,3129
1.768,-1.308,3129
1.772,-0.828,3129
1.776,-0.323,3129
1.780,0.188,3130
1.784,0.672,3130
1.788,1.062,3130
1.792,1.317,3130
1.796,1.400,3130
1.800,1.312,3130
1.804,1.052,3130
1.808,0.657,3130
1.812,0.172,3130
1.816,-0.338,3130
1.820,-0.858,3105
1.824,-1.365,3105
1.828,-1.740,3105
1.832,-1.978,3105
1.836,-2.060,3105
1.840,-1.633,3105
1.844,-1.300,3105
1.848,-0.825,3105
1.852,-0.328,3105
1.856,0.188,3124
1.860,0.665,3124
1.864,1.052,3124
1.868,1.298,3124
1.872,1.383,3124
1.876,1.298,3124
1.880,1.022,3124
1.884,0.620,3124
1.888,0.145,3124
1.892,-0.352,3124
1.896,-0.868,3124
1.900,-1.353,3123
1.904,-1.742,3123
1.908,-1.978,3123
1.912,-2.047,3123
1.916,-1.960,3123
1.920,-1.228,3123
1.924,-0.830,3123
1.928,-0.333,3123
1.932,0.190,3123
1.936,0.672,3117
1.940,1.073,3117
1.944,1.317,3117
1.948,1.390,3117
1.952,1.298,3117
1.956,1.020,3117
1.960,0.620,3117
1.964,0.147,3117
1.968,-0.347,3117
1.972,-0.865,3117
1.976,-1.347,3112
1.980,-1.738,3112
1.984,-1.962,3112
1.988,-2.033,3112
1.992,-1.942,3112
1.996,-1.677,3112
2.000,-0.623,3112
2.004,-0.175,3112
2.008,0.212,3112
2.012,0.782,3113
2.016,1.347,3113
2.020,1.420,3113
2.024,1.317,3113
2.028,1.038,3113
2.032,0.632,3113
2.036,0.158,3113
2.040,-0.347,3113
2.044,-0.873,3113
2.048,-1.373,3115
2.052,-1.772,3115
2.056,-1.992,3115
2.060,-2.083,3115
2.064,-1.978,3115
2.068,-1.728,3115
2.072,-1.323,3115
2.076,-0.843,3115
2.080,0.260,3099
2.084,1.093,3099
2.088,1.327,3099
2.092,1.383,3099
2.096,1.262,3099
2.100,1.028,3099
2.104,0.618,3099
2.108,0.147,3099
2.112,-0.375,3099
2.116,-0.882,3099
2.120,-1.357,3106
2.124,-1.762,3106
2.128,-1.978,3106
2.132,-2.053,3106
2.136,-1.965,3106
2.140,-1.698,3106
2.144,-1.298,3106
2.148,-0.823,3106
2.152,-0.328,3106
2.156,0.193,3106
2.160,1.103,3106
2.164,1.373,3106
2.168,1.255,3106
2.172,1.012,3106
2.176,0.590,3106
2.180,0.115,3106
2.184,-0.388,3106
2.188,-0.902,3106
2.192,-1.377,3110
2.196,-1.768,3110
2.200,-1.982,3110
2.204,-2.055,3110
2.208,-1.965,3110
2.212,-1.698,3110
2.216,-1.308,3110
2.220,-0.820,3110
2.224,-0.307,3110
2.228,0.212,3110
2.232,0.700,3120
2.236,1.075,3120
2.240,1.377,3120
2.244,1.270,3120
2.248,0.960,3120
2.252,0.610,3120
2.256,0.138,3120
2.260,-0.367,3120
2.264,-1.008,3113
2.268,-1.782,3113
2.272,-1.985,3113
2.276,-2.062,3113
2.280,-1.972,3113
2.284,-1.702,3113
2.288,-1.308,3113
2.292,-0.830,3113
2.296,-0.328,3113
2.300,0.193,3113
2.304,0.672,3113
2.308,1.077,3113
2.312,1.302,3113
2.316,1.380,3113
2.320,0.943,3113
2.324,0.595,3113
2.328,0.117,3113
2.332,-0.385,3113
2.336,-0.902,3113
2.340,-1.393,3129
2.344,-1.782,3129
2.348,-2.010,3129
2.352,-2.087,3129
2.356,-1.982,3129
2.360,-1.725,3129
2.364,-1.335,3129
2.368,-0.853,3129
2.372,-0.352,3129
2.376,0.172,3129
2.380,0.657,3108
2.384,1.048,3108
2.388,1.270,3108
2.392,1.357,3108
2.396,1.268,3108
2.400,0.550,3108
2.404,0.152,3108
2.408,-0.347,3108
2.412,-0.865,3108
2.416,-1.347,3118
2.420,-1.740,3118
2.424,-1.975,3118
2.428,-2.058,3118
2.432,-1.968,3118
2.436,-1.702,3118
2.440,-1.320,3118
2.444,-0.843,3118
2.448,-0.347,3118
2.452,0.172,3118
2.456,0.655,3137
2.460,1.052,3137
2.464,1.300,3137
2.468,1.383,3137
2.472,1.275,3137
2.476,1.018,3137
2.480,0.070,3137
2.484,-0.352,3137
2.488,-0.870,3137
2.492,-1.393,3136
2.496,-1.770,3136
2.500,-1.982,3136
2.504,-2.058,3136
2.508,-1.970,3136
2.512,-1.708,3136
2.516,-1.292,3136
2.520,-0.828,3136
2.524,-0.343,3136
2.528,0.172,3136
2.532,0.640,3142
2.536,1.032,3142
2.540,1.258,3142
2.544,1.343,3142
2.548,1.238,3142
2.552,0.988,3142
2.556,0.593,3142
2.560,-0.450,3142
2.564,-0.973,3142
2.568,-1.380,3138
2.572,-1.778,3138
2.576,-1.982,3138
2.580,-2.053,3138
2.584,-1.962,3138
2.588,-1.698,3138
2.592,-1.305,3138
2.596,-0.828,3138
2.600,-0.205,3138
2.604,0.273,3138
2.608,0.662,3118
2.612,1.058,3118
2.616,1.300,3118
2.620,1.387,3118
2.624,1.308,3118
2.628,1.028,3118
2.632,0.637,3118
2.636,0.175,3118
2.640,-0.927,3118
2.644,-1.330,3116
2.648,-1.728,3116
2.652,-1.988,3116
2.656,-2.042,3116
2.660,-1.952,3116
2.664,-1.688,3116
2.668,-1.308,3116
2.672,-0.833,3116
2.676,-0.343,3116
2.680,0.180,3116
2.684,0.662,3118
2.688,1.062,3118
2.692,1.312,3118
2.696,1.393,3118
2.700,1.308,3118
2.704,1.038,3118
2.708,0.632,3118
2.712,0.152,3118
2.716,-0.383,3118
2.720,-1.405,3121
2.724,-1.978,3121
2.728,-2.035,3121
2.732,-1.952,3121
2.736,-1.692,3121
2.740,-1.305,3121
2.744,-0.843,3121
2.748,-0.338,3121
2.752,0.177,3121
2.756,0.635,3119
2.760,1.030,3119
2.764,1.258,3119
2.768,1.350,3119
2.772,1.252,3119
2.776,1.008,3119
2.780,0.620,3119
2.784,0.147,3119
2.788,-0.347,3119
2.792,-0.863,3119
2.796,-1.353,3125
2.800,-2.018,3125
2.804,-2.083,3125
2.808,-1.985,3125
2.812,-1.728,3125
2.816,-1.340,3125
2.820,-0.858,3125
2.824,-0.362,3125
2.828,0.155,3125
2.832,0.627,3134
2.836,1.038,3134
2.840,1.268,3134
2.844,1.367,3134
2.848,1.262,3134
2.852,1.012,3134
2.856,0.618,3134
2.860,0.142,3134
2.864,-0.350,3134
2.868,-0.863,3134
2.872,-1.353,3106
2.876,-1.748,3106
2.880,-2.060,3106
2.884,-1.975,3106
2.888,-1.710,3106
2.892,-1.327,3106
2.896,-0.843,3106
2.900,-0.350,3106
2.904,0.177,3106
2.908,0.652,3106
2.912,1.048,3114
2.916,1.298,3114
2.920,1.377,3114
2.924,1.295,3114
2.928,1.028,3114
2.932,0.635,3114
2.936,0.177,3114
2.940,-0.333,3114
2.944,-0.845,3114
2.948,-1.330,3114
2.952,-1.712,3113
2.956,-1.952,3113
2.960,-1.897,3113
2.964,-1.653,3113
2.968,-1.260,3113
2.972,-0.770,3113
2.976,-0.302,3113
2.980,0.205,3113
2.984,0.693,3113
2.988,1.077,3104
2.992,1.337,3104
2.996,1.410,3104
3.000,1.323,3104
3.004,1.040,3104
3.008,0.657,3104
3.012,0.182,3104
3.016,-0.305,3104
3.020,-0.823,3104
3.024,-1.302,3104
3.028,-1.688,3119
3.032,-1.933,3119
3.036,-2.007,3119
3.040,-1.630,3119
3.044,-1.308,3119
3.048,-0.833,3119
3.052,-0.343,3119
3.056,0.172,3119
3.060,0.655,3119
3.064,1.052,3104
3.068,1.308,3104
3.072,1.383,3104
3.076,1.300,3104
3.080,1.038,3104
3.084,0.657,3104
3.088,0.193,3104
3.092,-0.320,3104
3.096,-0.828,3104
3.100,-1.312,3104
3.104,-1.708,3088
3.108,-1.948,3088
3.112,-2.027,3088
3.116,-1.948,3088
3.120,-1.235,3088
3.124,-0.853,3088
3.128,-0.355,3088
3.132,0.152,3088
3.136,0.632,3088
3.140,1.032,3112
3.144,1.270,3112
3.148,1.357,3112
3.152,1.260,3112
3.156,1.018,3112
3.160,0.627,3112
3.164,0.172,3112
3.168,-0.333,3112
3.172,-0.833,3112
3.176,-1.323,3112
3.180,-1.702,3107
3.184,-1.942,3107
3.188,-2.025,3107
3.192,-1.942,3107
3.196,-1.692,3107
3.200,-0.748,3107
3.204,-0.343,3107
3.208,0.182,3107
3.212,0.667,3107
3.216,1.067,3111
3.220,1.323,3111
3.224,1.407,3111
3.228,1.327,3111
3.232,1.060,3111
3.236,0.667,3111
3.240,0.193,3111
3.244,-0.325,3111
3.248,-0.845,3111
3.252,-1.335,3111
3.256,-1.730,3109
3.260,-1.978,3109
3.264,-2.060,3109
3.268,-1.972,3109
3.272,-1.702,3109
3.276,-1.340,3109
3.280,-0.278,3109
3.284,0.177,3109
3.288,0.632,3109
3.292,1.032,3121
3.296,1.387,3121
3.300,1.310,3121
3.304,1.058,3121
3.308,0.682,3121
3.312,0.210,3121
3.316,-0.287,3121
3.320,-0.807,3121
3.324,-1.292,3121
3.328,-1.688,3088
3.332,-1.940,3088
3.336,-2.022,3088
3.340,-1.942,3088
3.344,-1.698,3088
3.348,-1.320,3088
3.352,-0.853,3088
3.356,-0.360,3088
3.360,0.713,3088
3.364,1.035,3115
3.368,1.272,3115
3.372,1.370,3115
3.376,1.275,3115
3.380,1.032,3115
3.384,0.657,3115
3.388,0.188,3115
3.392,-0.305,3115
3.396,-0.823,3115
3.400,-1.300,3115
3.404,-1.688,3129
3.408,-1.940,3129
3.412,-2.018,3129
3.416,-1.927,3129
3.420,-1.673,3129
3.424,-1.295,3129
3.428,-0.820,3129
3.432,-0.338,3129
3.436,0.182,3129
3.440,1.097,3134
3.444,1.387,3134
3.448,1.300,3134
3.452,1.035,3134
3.456,0.637,3134
3.460,0.177,3134
3.464,-0.338,3134
3.468,-0.853,3134
3.472,-1.343,3134
3.476,-1.728,3133
3.480,-1.968,3133
3.484,-2.047,3133
3.488,-1.960,3133
3.492,-1.698,3133
3.496,-1.312,3133
3.500,-0.830,3133
3.504,-0.338,3133
3.508,0.177,3133
3.512,0.667,3133
3.516,1.062,3137
3.520,1.397,3137
3.524,1.317,3137
3.528,1.055,3137
3.532,0.667,3137
3.536,0.195,3137
3.540,-0.292,3137
3.544,-0.815,3137
3.548,-1.302,3137
3.552,-1.698,3139
3.556,-1.938,3139
3.560,-2.013,3139
3.564,-1.930,3139
3.568,-1.675,3139
3.572,-1.300,3139
3.576,-0.828,3139
3.580,-0.338,3139
3.584,0.177,3139
3.588,0.637,3139
3.592,1.052,3150
3.596,1.300,3150
3.600,1.255,3150
3.604,1.028,3150
3.608,0.632,3150
3.612,0.177,3150
3.616,-0.328,3150
3.620,-0.833,3150
3.624,-1.323,3150
3.628,-1.702,3123
3.632,-1.950,3123
3.636,-2.027,3123
3.640,-1.942,3123
3.644,-1.688,3123
3.648,-1.295,3123
3.652,-0.818,3123
3.656,-0.290,3123
3.660,0.185,3123
3.664,0.670,3123
3.668,1.058,3104
3.672,1.302,3104
3.676,1.385,3104
3.680,0.573,3104
3.684,-0.367,3104
3.688,-0.828,3104
3.692,-1.312,3104
3.696,-1.702,3095
3.700,-1.950,3095
3.704,-2.030,3095
3.708,-1.945,3095
3.712,-1.700,3095
3.716,-1.312,3095
3.720,-0.843,3095
3.724,-0.343,3095
3.728,0.170,3095
3.732,0.635,3095
3.736,1.032,3118
3.740,1.268,3118
3.744,1.357,3118
3.748,1.268,3118
3.752,1.018,3118
3.756,0.627,3118
3.760,-0.417,3118
3.764,-0.848,3118
3.768,-1.327,3118
3.772,-1.708,3119
3.776,-1.952,3119
3.780,-2.033,3119
3.784,-1.952,3119
3.788,-1.698,3119
3.792,-1.310,3119
3.796,-0.833,3119
3.800,-0.347,3119
3.804,0.158,3119
3.808,0.630,3119
3.812,1.032,3116
3.816,1.272,3116
3.820,1.375,3116
3.824,1.272,3116
3.828,1.028,3116
3.832,0.625,3116
3.836,0.172,3116
3.840,-0.912,3116
3.844,-1.323,3116
3.848,-1.708,3129
3.852,-1.955,3129
3.856,-2.042,3129
3.860,-1.960,3129
3.864,-1.708,3129
3.868,-1.325,3129
3.872,-0.848,3129
3.876,-0.352,3129
3.880,0.152,3129
3.884,0.637,3129
3.888,1.032,3125
3.892,1.292,3125
3.896,1.373,3125
3.900,1.298,3125
3.904,1.038,3125
3.908,0.657,3125
3.912,0.190,3125
3.916,-0.297,3125
3.920,-1.423,3125
3.924,-1.695,3121
3.928,-2.018,3121
3.932,-1.948,3121
3.936,-1.700,3121
3.940,-1.325,3121
3.944,-0.853,3121
3.948,-0.367,3121
3.952,0.138,3121
3.956,0.613,3121
3.960,1.012,3121
3.964,1.255,3158
3.968,1.357,3158
3.972,1.268,3158
3.976,1.032,3158
3.980,0.660,3158
3.984,0.193,3158
3.988,-0.295,3158
3.992,-0.810,3158
3.996,-1.290,3158
4.000,-1.968,3114
4.004,-1.910,3114
4.008,-1.683,3114
4.012,-1.327,3114
4.016,-0.860,3114
4.020,-0.367,3114
4.024,0.140,3114
4.028,0.627,3114
4.032,1.052,3114
4.036,1.300,3106
4.040,1.407,3106
4.044,1.330,3106
4.048,1.075,3106
4.052,0.688,3106
4.056,0.225,3106
4.060,-0.263,3106
4.064,-0.780,3106
4.068,-1.258,3106
4.072,-1.677,3106
4.076,-1.933,3125
4.080,-1.927,3125
4.084,-1.702,3125
4.088,-1.333,3125
4.092,-0.858,3125
4.096,-0.362,3125
4.100,0.150,3125
4.104,0.632,3125
4.108,1.038,3125
4.112,1.275,3109
4.116,1.387,3109
4.120,1.310,3109
4.124,1.052,3109
4.128,0.667,3109
4.132,0.198,3109
4.136,-0.295,3109
4.140,-0.812,3109
4.144,-1.288,3109
4.148,-1.683,3109
4.152,-1.927,3116
4.156,-2.007,3116
4.160,-1.625,3116
4.164,-1.302,3116
4.168,-0.843,3116
4.172,-0.362,3116
4.176,0.147,3116
4.180,0.620,3116
4.184,1.020,3116
4.188,1.260,3097
4.192,1.357,3097
4.196,1.270,3097
4.200,1.038,3097
4.204,0.660,3097
4.208,0.195,3097
4.212,-0.297,3097
4.216,-0.815,3097
4.220,-1.302,3097
4.224,-1.700,3097
4.228,-1.948,3105
4.232,-2.033,3105
4.236,-1.962,3105
4.240,-1.252,3105
4.244,-0.767,3105
4.248,-0.343,3105
4.252,0.147,3105
4.256,0.623,3105
4.260,1.028,3105
4.264,1.272,3119
4.268,1.380,3119
4.272,1.298,3119
4.276,1.038,3119
4.280,0.652,3119
4.284,0.188,3119
4.288,-0.323,3119
4.292,-0.828,3119
4.296,-1.310,3119
4.300,-1.700,3119
4.304,-1.950,3101
4.308,-2.038,3101
4.312,-1.962,3101
4.316,-1.718,3101
4.320,-0.802,3101
4.324,-0.380,3101
4.328,0.138,3101
4.332,0.625,3101
4.336,1.032,3101
4.340,1.300,3109
4.344,1.387,3109
4.348,1.312,3109
4.352,1.052,3109
4.356,0.675,3109
4.360,0.212,3109
4.364,-0.287,3109
4.368,-0.805,3109
4.372,-1.298,3109
4.376,-1.695,3109
4.380,-1.950,3127
4.384,-2.047,3127
4.388,-1.972,3127
4.392,-1.722,3127
4.396,-1.343,3127
4.400,-0.297,3127
4.404,0.233,3127
4.408,0.623,3127
4.412,1.012,3127
4.416,1.300,3129
4.420,1.383,3129
4.424,1.305,3129
4.428,1.052,3129
4.432,0.675,3129
4.436,0.212,3129
4.440,-0.302,3129
4.444,-0.785,3129
4.448,-1.258,3129
4.452,-1.663,3129
4.456,-1.927,3110
4.460,-2.018,3110
4.464,-1.948,3110
4.468,-1.712,3110
4.472,-1.337,3110
4.476,-0.880,3110
4.480,0.205,3110
4.484,0.593,3110
4.488,0.995,3110
4.492,1.248,3138
4.496,1.347,3138
4.500,1.268,3138
4.504,1.028,3138
4.508,0.632,3138
4.512,0.182,3138
4.516,-0.302,3138
4.520,-0.818,3138
4.524,-1.302,3138
4.528,-1.700,3138
4.532,-1.962,3139
4.536,-2.050,3139
4.540,-1.978,3139
4.544,-1.735,3139
