Czas(s),EKG_Surowe(mV),PPG_Surowe(ADC)
0.000,-0.873,3129
0.001,-0.463,3129
0.002,0.140,3129
0.003,0.527,3129
0.004,0.943,3129
0.005,1.222,3120
0.006,1.343,3120
0.007,1.300,3120
0.008,1.060,3120
0.009,0.705,3120
0.010,0.253,3120
0.011,-0.242,3120
0.012,-0.750,3120
0.013,-1.252,3120
0.014,-1.690,3120
0.015,-1.968,3083
0.016,-2.098,3083
0.017,-2.047,3083
0.018,-1.823,3083
0.019,-1.462,3083
0.020,-0.432,3083
0.021,-0.022,3083
0.022,0.472,3083
0.023,0.907,3083
0.024,1.190,3083
0.025,1.317,3120
0.026,1.262,3120
0.027,1.050,3120
0.028,0.698,3120
0.029,0.253,3120
0.030,-0.228,3120
0.031,-0.748,3120
0.032,-1.238,3120
0.033,-1.667,3120
0.034,-1.952,3120
0.035,-2.085,3130
0.036,-2.035,3130
0.037,-1.823,3130
0.038,-1.472,3130
0.039,-1.018,3130
0.040,0.062,3130
0.041,0.502,3130
0.042,0.907,3130
0.043,1.185,3130
0.044,1.330,3107
0.045,1.272,3107
0.046,1.062,3107
0.047,0.703,3107
0.048,0.247,3107
0.049,-0.250,3107
0.050,-0.752,3107
0.051,-1.258,3107
0.052,-1.690,3107
0.053,-1.978,3107
0.054,-2.090,3120
0.055,-2.042,3120
0.056,-1.823,3120
0.057,-1.468,3120
0.058,-1.012,3120
0.059,-0.530,3120
0.060,0.557,3120
0.061,0.912,3120
0.062,1.195,3120
0.063,1.327,3115
0.064,1.258,3115
0.065,1.050,3115
0.066,0.688,3115
0.067,0.233,3115
0.068,-0.255,3115
0.069,-0.752,3115
0.070,-1.232,3115
0.071,-1.663,3115
0.072,-1.948,3115
0.073,-2.058,3101
0.074,-2.025,3101
0.075,-1.815,3101
0.076,-1.468,3101
0.077,-1.018,3101
0.078,-0.522,3101
0.079,-0.018,3101
0.080,0.980,3101
0.081,1.212,3106
0.082,1.310,3106
0.083,1.097,3106
0.084,0.738,3106
0.085,0.287,3106
0.086,-0.207,3106
0.087,-0.710,3106
0.088,-1.210,3106
0.089,-1.647,3106
0.090,-1.942,3106
0.091,-2.062,3119
0.092,-2.030,3119
0.093,-1.812,3119
0.094,-1.472,3119
0.095,-1.028,3119
0.096,-0.547,3119
0.097,-0.058,3119
0.098,0.432,3119
0.099,0.865,3119
0.100,1.323,3109
0.101,1.070,3109
0.102,0.720,3109
0.103,0.287,3109
0.104,-0.203,3109
0.105,-0.708,3109
0.106,-1.190,3109
0.107,-1.630,3109
0.108,-1.933,3109
0.109,-2.055,3117
0.110,-2.033,3117
0.111,-1.843,3117
0.112,-1.492,3117
0.113,-1.042,3117
0.114,-0.562,3117
0.115,-0.058,3117
0.116,0.458,3117
0.117,0.890,3117
0.118,1.180,3117
0.119,1.333,3114
0.120,1.022,3114
0.121,0.733,3114
0.122,0.278,3114
0.123,-0.205,3114
0.124,-0.713,3114
0.125,-1.212,3114
0.126,-1.653,3114
0.127,-1.948,3114
0.128,-2.092,3132
0.129,-2.053,3132
0.130,-1.857,3132
0.131,-1.522,3132
0.132,-1.070,3132
0.133,-0.585,3132
0.134,-0.087,3132
0.135,0.420,3132
0.136,0.863,3132
0.137,1.173,3132
0.138,1.317,3134
0.139,1.295,3134
0.140,0.672,3134
0.141,0.292,3134
0.142,-0.185,3134
0.143,-0.698,3134
0.144,-1.208,3134
0.145,-1.647,3134
0.146,-1.948,3134
0.147,-2.095,3116
0.148,-2.062,3116
0.149,-1.863,3116
0.150,-1.528,3116
0.151,-1.083,3116
0.152,-0.593,3116
0.153,-0.095,3116
0.154,0.398,3116
0.155,0.850,3116
0.156,1.155,3116
0.157,1.308,3130
0.158,1.298,3130
0.159,1.095,3130
0.160,0.258,3130
0.161,-0.185,3130
0.162,-0.667,3130
0.163,-1.163,3130
0.164,-1.617,3130
0.165,-1.923,3130
0.166,-2.058,3133
0.167,-2.033,3133
0.168,-1.853,3133
0.169,-1.520,3133
0.170,-1.067,3133
0.171,-0.588,3133
0.172,-0.095,3133
0.173,0.398,3133
0.174,0.838,3133
0.175,1.147,3133
0.176,1.298,3141
0.177,1.262,3141
0.178,1.067,3141
0.179,0.730,3141
0.180,-0.275,3141
0.181,-0.698,3141
0.182,-1.192,3141
0.183,-1.645,3141
0.184,-1.942,3141
0.185,-2.083,3129
0.186,-2.053,3129
0.187,-1.865,3129
0.188,-1.522,3129
0.189,-1.083,3129
0.190,-0.573,3129
0.191,-0.102,3129
0.192,0.390,3129
0.193,0.833,3129
0.194,1.147,3129
0.195,1.300,3130
0.196,1.035,3130
0.197,0.738,3130
0.198,0.302,3130
0.199,-0.180,3130
0.200,-1.248,3130
0.201,-1.623,3130
0.202,-1.933,3130
0.203,-2.062,3139
0.204,-2.053,3139
0.205,-1.857,3139
0.206,-1.525,3139
0.207,-1.073,3139
0.208,-0.593,3139
0.209,-0.098,3139
0.210,0.400,3139
0.211,0.858,3139
0.212,1.177,3139
0.213,1.343,3128
0.214,1.333,3128
0.215,1.137,3128
0.216,0.787,3128
0.217,0.355,3128
0.218,-0.133,3128
0.219,-0.652,3128
0.220,-1.665,3128
0.221,-1.933,3128
0.222,-2.060,3129
0.223,-2.050,3129
0.224,-1.865,3129
0.225,-1.528,3129
0.226,-1.073,3129
0.227,-0.588,3129
0.228,-0.092,3129
0.229,0.417,3129
0.230,0.868,3129
0.231,1.192,3129
0.232,1.360,3127
0.233,1.347,3127
0.234,1.150,3127
0.235,0.818,3127
0.236,0.372,3127
0.237,-0.113,3127
0.238,-0.623,3127
0.239,-1.137,3127
0.240,-1.948,3127
0.241,-2.062,3133
0.242,-2.058,3133
0.243,-1.873,3133
0.244,-1.542,3133
0.245,-1.103,3133
0.246,-0.623,3133
0.247,-0.133,3133
0.248,0.367,3133
0.249,0.818,3133
0.250,1.120,3133
0.251,1.295,3135
0.252,1.270,3135
0.253,1.095,3135
0.254,0.772,3135
0.255,0.343,3135
0.256,-0.140,3135
0.257,-0.647,3135
0.258,-1.140,3135
0.259,-1.585,3135
0.260,-2.065,3130
0.261,-1.867,3130
0.262,-1.542,3130
0.263,-1.097,3130
0.264,-0.613,3130
0.265,-0.107,3130
0.266,0.412,3130
0.267,0.868,3130
0.268,1.202,3130
0.269,1.370,3115
0.270,1.367,3115
0.271,1.177,3115
0.272,0.853,3115
0.273,0.407,3115
0.274,-0.072,3115
0.275,-0.583,3115
0.276,-1.097,3115
0.277,-1.555,3115
0.278,-1.887,3115
0.279,-2.058,3115
0.280,-1.857,3115
0.281,-1.127,3115
0.282,-0.657,3115
0.283,-0.147,3115
0.284,0.375,3115
0.285,0.792,3115
0.286,1.113,3115
0.287,1.295,3115
0.288,1.302,3123
0.289,1.110,3123
0.290,0.777,3123
0.291,0.362,3123
0.292,-0.115,3123
0.293,-0.623,3123
0.294,-1.130,3123
0.295,-1.577,3123
0.296,-1.893,3123
0.297,-2.055,3123
0.298,-2.058,3110
0.299,-1.873,3110
0.300,-1.055,3110
0.301,-0.618,3110
0.302,-0.145,3110
0.303,0.357,3110
0.304,0.812,3110
0.305,1.143,3110
0.306,1.305,3110
0.307,1.308,3126
0.308,1.103,3126
0.309,0.785,3126
0.310,0.357,3126
0.311,-0.133,3126
0.312,-0.645,3126
0.313,-1.137,3126
0.314,-1.603,3126
0.315,-1.923,3126
0.316,-2.087,3126
0.317,-2.092,3104
0.318,-1.907,3104
0.319,-1.580,3104
0.320,-0.578,3104
0.321,-0.168,3104
0.322,0.352,3104
0.323,0.818,3104
0.324,1.150,3104
0.325,1.337,3104
0.326,1.340,3114
0.327,1.153,3114
0.328,0.833,3114
0.329,0.395,3114
0.330,-0.087,3114
0.331,-0.588,3114
0.332,-1.100,3114
0.333,-1.562,3114
0.334,-1.900,3114
0.335,-2.065,3114
0.336,-2.087,3113
0.337,-1.927,3113
0.338,-1.613,3113
0.339,-1.173,3113
0.340,-0.107,3113
0.341,0.305,3113
0.342,0.767,3113
0.343,1.107,3113
0.344,1.278,3113
0.345,1.305,3110
0.346,1.117,3110
0.347,0.818,3110
0.348,0.388,3110
0.349,-0.098,3110
0.350,-0.593,3110
0.351,-1.100,3110
0.352,-1.552,3110
0.353,-1.945,3110
0.354,-2.058,3110
0.355,-2.062,3106
0.356,-1.877,3106
0.357,-1.565,3106
0.358,-1.127,3106
0.359,-0.650,3106
0.360,0.448,3106
0.361,0.823,3106
0.362,1.157,3106
0.363,1.337,3106
0.364,1.355,3124
0.365,1.173,3124
0.366,0.868,3124
0.367,0.448,3124
0.368,-0.048,3124
0.369,-0.547,3124
0.370,-1.065,3124
0.371,-1.538,3124
0.372,-1.885,3124
0.373,-2.062,3124
0.374,-2.090,3118
0.375,-1.910,3118
0.376,-1.610,3118
0.377,-1.177,3118
0.378,-0.693,3118
0.379,-0.182,3118
0.380,0.858,3118
0.381,1.173,3118
0.382,1.333,3118
0.383,1.347,3113
0.384,1.177,3113
0.385,0.863,3113
0.386,0.432,3113
0.387,-0.048,3113
0.388,-0.562,3113
0.389,-1.052,3113
0.390,-1.520,3113
0.391,-1.857,3113
0.392,-2.033,3113
0.393,-2.060,3110
0.394,-1.920,3110
0.395,-1.613,3110
0.396,-1.185,3110
0.397,-0.703,3110
0.398,-0.205,3110
0.399,0.307,3110
0.400,1.167,3110
0.401,1.310,3110
0.402,1.340,3128
0.403,1.167,3128
0.404,0.860,3128
0.405,0.438,3128
0.406,-0.052,3128
0.407,-0.542,3128
0.408,-1.048,3128
0.409,-1.522,3128
0.410,-1.863,3128
0.411,-2.038,3128
0.412,-2.067,3134
0.413,-1.907,3134
0.414,-1.610,3134
0.415,-1.183,3134
0.416,-0.708,3134
0.417,-0.215,3134
0.418,0.290,3134
0.419,0.743,3134
0.420,1.302,3134
0.421,1.308,3137
0.422,0.838,3137
0.423,0.427,3137
0.424,-0.052,3137
0.425,-0.547,3137
0.426,-1.048,3137
0.427,-1.502,3137
0.428,-1.847,3137
0.429,-2.018,3137
0.430,-2.047,3078
0.431,-1.890,3078
0.432,-1.603,3078
0.433,-1.177,3078
0.434,-0.703,3078
0.435,-0.217,3078
0.436,0.292,3078
0.437,0.752,3078
0.438,1.097,3078
0.439,1.302,3078
0.440,1.120,3147
0.441,0.415,3147
0.442,-0.055,3147
0.443,-0.547,3147
0.444,-1.058,3147
0.445,-1.515,3147
0.446,-1.860,3147
0.447,-2.038,3147
0.448,-2.058,3130
0.449,-1.907,3130
0.450,-1.613,3130
0.451,-1.183,3130
0.452,-0.708,3130
0.453,-0.212,3130
0.454,0.292,3130
0.455,0.760,3130
0.456,1.113,3130
0.457,1.312,3130
0.458,1.343,3137
0.459,1.183,3137
0.460,0.380,3137
0.461,-0.025,3137
0.462,-0.532,3137
0.463,-1.048,3137
0.464,-1.522,3137
0.465,-1.867,3137
0.466,-2.053,3137
0.467,-2.083,3131
0.468,-1.938,3131
0.469,-1.643,3131
0.470,-1.212,3131
0.471,-0.740,3131
0.472,-0.242,3131
0.473,0.263,3131
0.474,0.733,3131
0.475,1.097,3131
0.476,1.302,3131
0.477,1.343,3129
0.478,1.170,3129
0.479,0.935,3129
0.480,-0.033,3129
0.481,-0.453,3129
0.482,-0.910,3129
0.483,-1.482,3129
0.484,-1.860,3129
0.485,-2.038,3129
0.486,-2.103,3151
0.487,-1.968,3151
0.488,-1.683,3151
0.489,-1.255,3151
0.490,-0.780,3151
0.491,-0.282,3151
0.492,0.242,3151
0.493,0.710,3151
0.494,1.087,3151
0.495,1.300,3151
0.496,1.343,3131
0.497,1.188,3131
0.498,0.900,3131
0.499,0.492,3131
0.500,-0.570,3131
0.501,-1.010,3131
0.502,-1.488,3131
0.503,-1.850,3131
0.504,-2.045,3131
0.505,-2.098,3091
0.506,-1.970,3091
0.507,-1.690,3091
0.508,-1.262,3091
0.509,-0.785,3091
0.510,-0.297,3091
0.511,0.223,3091
0.512,0.695,3091
0.513,1.058,3091
0.514,1.262,3091
0.515,1.325,3101
0.516,1.167,3101
0.517,0.877,3101
0.518,0.468,3101
0.519,-0.007,3101
0.520,-1.083,3101
0.521,-1.472,3101
0.522,-1.827,3101
0.523,-2.027,3101
0.524,-2.067,3119
0.525,-1.948,3119
0.526,-1.663,3119
0.527,-1.235,3119
0.528,-0.765,3119
0.529,-0.268,3119
0.530,0.233,3119
0.531,0.713,3119
0.532,1.073,3119
0.533,1.300,3119
0.534,1.347,3119
0.535,1.195,3106
0.536,0.905,3106
0.537,0.502,3106
0.538,0.030,3106
0.539,-0.482,3106
0.540,-1.558,3106
0.541,-1.853,3106
0.542,-2.038,3106
0.543,-2.100,3106
0.544,-1.980,3119
0.545,-1.692,3119
0.546,-1.288,3119
0.547,-0.812,3119
0.548,-0.320,3119
0.549,0.207,3119
0.550,0.682,3119
0.551,1.058,3119
0.552,1.268,3119
0.553,1.343,3119
0.554,1.208,3119
0.555,0.912,3119
0.556,0.510,3119
0.557,0.037,3119
0.558,-0.465,3119
0.559,-0.985,3119
0.560,-1.867,3119
0.561,-2.020,3119
0.562,-2.085,3119
0.563,-1.952,3117
0.564,-1.663,3117
0.565,-1.252,3117
0.566,-0.782,3117
0.567,-0.292,3117
0.568,0.217,3117
0.569,0.698,3117
0.570,1.060,3117
0.571,1.262,3117
0.572,1.323,3117
0.573,1.183,3117
0.574,0.897,3117
0.575,0.455,3117
0.576,0.025,3117
0.577,-0.490,3117
0.578,-1.002,3117
0.579,-1.470,3117
0.580,-2.060,3117
0.581,-2.098,3117
0.582,-1.952,3108
0.583,-1.663,3108
0.584,-1.252,3108
0.585,-0.777,3108
0.586,-0.287,3108
0.587,0.233,3108
0.588,0.710,3108
0.589,1.097,3108
0.590,1.317,3108
0.591,1.373,3108
0.592,1.238,3133
0.593,0.945,3133
0.594,0.542,3133
0.595,0.068,3133
0.596,-0.445,3133
0.597,-0.970,3133
0.598,-1.448,3133
0.599,-1.827,3133
0.600,-2.103,3110
0.601,-1.708,3110
0.602,-1.310,3110
0.603,-0.830,3110
0.604,-0.335,3110
0.605,0.180,3110
0.606,0.655,3110
0.607,1.028,3110
0.608,1.250,3110
0.609,1.333,3110
0.610,1.212,3120
0.611,0.938,3120
0.612,0.542,3120
0.613,0.087,3120
0.614,-0.417,3120
0.615,-0.927,3120
0.616,-1.395,3120
0.617,-1.780,3120
0.618,-1.990,3120
0.619,-2.058,3120
0.620,-1.640,3112
0.621,-0.815,3112
0.622,-0.335,3112
0.623,0.188,3112
0.624,0.667,3112
0.625,1.060,3112
0.626,1.298,3112
0.627,1.355,3112
0.628,1.230,3111
0.629,0.950,3111
0.630,0.565,3111
0.631,0.087,3111
0.632,-0.412,3111
0.633,-0.922,3111
0.634,-1.407,3111
0.635,-1.795,3111
0.636,-2.018,3111
0.637,-2.087,3111
0.638,-1.980,3118
0.639,-1.712,3118
0.640,-0.772,3118
0.641,-0.367,3118
0.642,0.155,3118
0.643,0.630,3118
0.644,1.028,3118
0.645,1.252,3118
0.646,1.340,3118
0.647,1.228,3127
0.648,0.950,3127
0.649,0.565,3127
0.650,0.095,3127
0.651,-0.403,3127
0.652,-0.910,3127
0.653,-1.393,3127
0.654,-1.780,3127
0.655,-2.010,3127
0.656,-2.087,3127
0.657,-1.978,3141
0.658,-1.708,3141
0.659,-1.325,3141
0.660,-0.268,3141
0.661,0.177,3141
0.662,0.627,3141
0.663,1.022,3141
0.664,1.235,3141
0.665,1.327,3141
0.666,1.208,3127
0.667,0.930,3127
0.668,0.537,3127
0.669,0.072,3127
0.670,-0.420,3127
0.671,-0.963,3127
0.672,-1.413,3127
0.673,-1.812,3127
0.674,-2.033,3127
0.675,-2.107,3127
0.676,-2.005,3134
0.677,-1.728,3134
0.678,-1.350,3134
0.679,-0.868,3134
0.680,0.233,3134
0.681,0.675,3134
0.682,1.038,3134
0.683,1.272,3134
0.684,1.377,3134
0.685,1.265,3136
0.686,1.002,3136
0.687,0.610,3136
0.688,0.142,3136
0.689,-0.362,3136
0.690,-0.870,3136
0.691,-1.375,3136
0.692,-1.768,3136
0.693,-2.007,3136
0.694,-2.095,3136
0.695,-1.992,3152
0.696,-1.738,3152
0.697,-1.353,3152
0.698,-0.887,3152
0.699,-0.407,3152
0.700,0.665,3152
0.701,1.008,3152
0.702,1.232,3152
0.703,1.327,3152
0.704,1.238,3131
0.705,0.973,3131
0.706,0.583,3131
0.707,0.128,3131
0.708,-0.372,3131
0.709,-0.870,3131
0.710,-1.347,3131
0.711,-1.762,3131
0.712,-1.990,3131
0.713,-2.083,3131
0.714,-1.982,3129
0.715,-1.728,3129
0.716,-1.347,3129
0.717,-0.887,3129
0.718,-0.395,3129
0.719,0.113,3129
0.720,1.032,3129
0.721,1.228,3129
0.722,1.323,3129
0.723,1.192,3144
0.724,0.953,3144
0.725,0.568,3144
0.726,0.113,3144
0.727,-0.380,3144
0.728,-0.887,3144
0.729,-1.373,3144
0.730,-1.778,3144
0.731,-2.018,3144
0.732,-2.100,3144
0.733,-2.002,3133
0.734,-1.740,3133
0.735,-1.347,3133
0.736,-0.873,3133
0.737,-0.380,3133
0.738,0.133,3133
0.739,0.615,3133
0.740,1.300,3133
0.741,1.367,3133
0.742,1.260,3123
0.743,0.998,3123
0.744,0.613,3123
0.745,0.147,3123
0.746,-0.350,3123
0.747,-0.858,3123
0.748,-1.345,3123
0.749,-1.740,3123
0.750,-1.985,3123
0.751,-2.062,3123
0.752,-1.982,3117
0.753,-1.732,3117
0.754,-1.353,3117
0.755,-0.897,3117
0.756,-0.415,3117
0.757,0.090,3117
0.758,0.573,3117
0.759,0.973,3117
0.760,1.327,3117
0.761,1.218,3120
0.762,0.958,3120
0.763,0.583,3120
0.764,0.130,3120
0.765,-0.362,3120
0.766,-0.858,3120
0.767,-1.355,3120
0.768,-1.782,3120
0.769,-2.013,3120
0.770,-2.103,3120
0.771,-2.022,3143
0.772,-1.780,3143
0.773,-1.403,3143
0.774,-0.912,3143
0.775,-0.427,3143
0.776,0.077,3143
0.777,0.575,3143
0.778,0.985,3143
0.779,1.230,3143
0.780,1.230,3129
0.781,0.618,3129
0.782,0.158,3129
0.783,-0.333,3129
0.784,-0.848,3129
0.785,-1.340,3129
0.786,-1.738,3129
0.787,-1.985,3129
0.788,-2.062,3129
0.789,-1.992,3129
0.790,-1.738,3123
0.791,-1.353,3123
0.792,-0.887,3123
0.793,-0.393,3123
0.794,0.120,3123
0.795,0.608,3123
0.796,1.008,3123
0.797,1.260,3123
0.798,1.367,3123
0.799,1.268,3123
0.800,0.552,3109
0.801,-0.372,3109
0.802,-0.855,3109
0.803,-1.337,3109
0.804,-1.735,3109
0.805,-1.988,3109
0.806,-2.083,3109
0.807,-2.010,3109
0.808,-1.770,3132
0.809,-1.390,3132
0.810,-0.930,3132
0.811,-0.453,3132
0.812,0.058,3132
0.813,0.542,3132
0.814,0.948,3132
0.815,1.218,3132
0.816,1.327,3132
0.817,1.238,3132
0.818,1.008,3070
0.819,0.618,3070
0.820,-0.403,3070
0.821,-0.828,3070
0.822,-1.312,3070
0.823,-1.722,3070
0.824,-1.978,3070
0.825,-2.067,3070
0.826,-1.990,3070
0.827,-1.768,3096
0.828,-1.377,3096
0.829,-0.922,3096
0.830,-0.432,3096
0.831,0.068,3096
0.832,0.547,3096
0.833,0.948,3096
0.834,1.210,3096
0.835,1.323,3096
0.836,1.238,3096
0.837,1.012,3112
0.838,0.627,3112
0.839,0.193,3112
0.840,-0.885,3112
0.841,-1.333,3112
0.842,-1.710,3112
0.843,-1.968,3112
0.844,-2.062,3112
0.845,-2.005,3112
0.846,-1.772,3103
0.847,-1.383,3103
0.848,-0.912,3103
0.849,-0.432,3103
0.850,0.068,3103
0.851,0.568,3103
0.852,0.978,3103
0.853,1.235,3103
0.854,1.350,3103
0.855,1.272,3103
0.856,1.028,3128
0.857,0.657,3128
0.858,0.198,3128
0.859,-0.287,3128
0.860,-1.383,3128
0.861,-1.742,3128
0.862,-1.980,3128
0.863,-2.087,3128
0.864,-2.002,3128
0.865,-1.792,3105
0.866,-0.907,3105
0.867,-0.465,3105
0.868,0.188,3105
0.869,0.540,3105
0.870,0.980,3105
0.871,1.222,3105
0.872,1.343,3105
0.873,1.272,3105
0.874,1.038,3112
0.875,0.660,3112
0.876,0.205,3112
0.877,-0.282,3112
0.878,-0.800,3112
0.879,-1.295,3112
0.880,-1.990,3112
0.881,-2.080,3112
0.882,-2.013,3112
0.883,-1.732,3114
0.884,-0.932,3114
0.885,-0.505,3114
0.886,0.013,3114
0.887,0.497,3114
0.888,0.917,3114
0.889,1.188,3114
0.890,1.317,3114
0.891,1.252,3114
0.892,1.032,3120
0.893,0.665,3120
0.894,0.220,3120
0.895,-0.263,3120
0.896,-0.767,3120
0.897,-1.250,3120
0.898,-1.673,3120
0.899,-1.948,3120
0.900,-1.990,3120
0.901,-1.808,3137
0.902,-1.427,3137
0.903,-0.990,3137
0.904,-0.502,3137
0.905,-0.007,3137
0.906,0.497,3137
0.907,0.907,3137
0.908,1.185,3137
0.909,1.317,3137
0.910,1.255,3137
0.911,1.032,3073
0.912,0.662,3073
0.913,0.220,3073
0.914,-0.265,3073
0.915,-0.775,3073
0.916,-1.262,3073
0.917,-1.690,3073
0.918,-1.965,3073
0.919,-2.062,3073
0.920,-1.742,3129
0.921,-0.940,3129
0.922,-0.497,3129
0.923,0.028,3129
0.924,0.512,3129
0.925,0.943,3129
0.926,1.222,3129
0.927,1.347,3129
0.928,1.302,3129
0.929,1.073,3126
0.930,0.708,3126
0.931,0.260,3126
0.932,-0.225,3126
0.933,-0.738,3126
0.934,-1.235,3126
0.935,-1.665,3126
0.936,-1.960,3126
0.937,-2.083,3126
0.938,-2.033,3126
0.939,-1.812,3141
0.940,-0.907,3141
0.941,-0.505,3141
0.942,0.018,3141
0.943,0.497,3141
0.944,0.917,3141
0.945,1.195,3141
0.946,1.333,3141
0.947,1.292,3141
0.948,1.062,3100
0.949,0.698,3100
0.950,0.255,3100
0.951,-0.228,3100
0.952,-0.738,3100
0.953,-1.228,3100
0.954,-1.663,3100
0.955,-1.942,3100
0.956,-2.060,3100
0.957,-2.025,3100
0.958,-1.808,3135
0.959,-1.448,3135
0.960,-0.460,3135
0.961,0.018,3135
0.962,0.505,3135
0.963,0.912,3135
0.964,1.183,3135
0.965,1.327,3135
0.966,1.260,3135
0.967,1.062,3095
0.968,0.708,3095
0.969,0.258,3095
0.970,-0.212,3095
0.971,-0.728,3095
0.972,-1.218,3095
0.973,-1.657,3095
0.974,-1.982,3095
0.975,-2.067,3095
0.976,-2.015,3095
0.977,-1.808,3127
0.978,-1.413,3127
0.979,-0.978,3127
0.980,0.077,3127
0.981,0.497,3127
0.982,0.910,3127
0.983,1.208,3127
0.984,1.337,3127
0.985,1.302,3127
0.986,1.070,3121
0.987,0.698,3121
0.988,0.258,3121
0.989,-0.230,3121
0.990,-0.738,3121
0.991,-1.225,3121
0.992,-1.667,3121
0.993,-1.962,3121
0.994,-2.098,3121
0.995,-2.053,3121
0.996,-1.845,3127
0.997,-1.488,3127
0.998,-1.042,3127
0.999,-0.547,3127
1.000,0.542,3127
1.001,0.897,3127
1.002,1.173,3127
1.003,1.327,3127
1.004,1.292,3127
1.005,1.067,3120
1.006,0.710,3120
1.007,0.268,3120
1.008,-0.207,3120
1.009,-0.708,3120
1.010,-1.190,3120
1.011,-1.623,3120
1.012,-1.927,3120
1.013,-2.042,3120
1.014,-2.020,3120
1.015,-1.812,3115
1.016,-1.458,3115
1.017,-1.008,3115
1.018,-0.512,3115
1.019,-0.018,3115
1.020,0.993,3115
1.021,1.228,3115
1.022,1.340,3115
1.023,1.300,3115
1.024,1.093,3118
1.025,0.733,3118
1.026,0.290,3118
1.027,-0.203,3118
1.028,-0.708,3118
1.029,-1.212,3118
1.030,-1.653,3118
1.031,-1.952,3118
1.032,-2.087,3118
1.033,-2.053,3118
1.034,-1.847,3118
1.035,-1.498,3083
1.036,-1.045,3083
1.037,-0.552,3083
1.038,-0.050,3083
1.039,0.463,3083
1.040,1.258,3083
1.041,1.377,3083
1.042,1.357,3083
1.043,1.147,3083
1.044,0.787,3134
1.045,0.318,3134
1.046,-0.172,3134
1.047,-0.688,3134
1.048,-1.192,3134
1.049,-1.653,3134
1.050,-1.962,3134
1.051,-2.103,3134
1.052,-2.092,3134
1.053,-1.887,3134
1.054,-1.545,3110
1.055,-1.085,3110
1.056,-0.578,3110
1.057,-0.092,3110
1.058,0.420,3110
1.059,0.873,3110
1.060,1.353,3110
1.061,1.330,3110
1.062,1.087,3110
1.063,0.733,3115
1.064,0.305,3115
1.065,-0.168,3115
1.066,-0.682,3115
1.067,-1.180,3115
1.068,-1.623,3115
1.069,-1.927,3115
1.070,-2.058,3115
1.071,-2.042,3115
1.072,-1.857,3115
1.073,-1.505,3150
1.074,-1.060,3150
1.075,-0.583,3150
1.076,-0.092,3150
1.077,0.412,3150
1.078,0.848,3150
1.079,1.147,3150
1.080,1.238,3150
1.081,1.058,3150
1.082,0.728,3119
1.083,0.278,3119
1.084,-0.190,3119
1.085,-0.693,3119
1.086,-1.183,3119
1.087,-1.620,3119
1.088,-1.933,3119
1.089,-2.062,3119
1.090,-2.047,3119
1.091,-1.853,3119
1.092,-1.522,3112
1.093,-1.067,3112
1.094,-0.593,3112
1.095,-0.087,3112
1.096,0.417,3112
1.097,0.863,3112
1.098,1.185,3112
1.099,1.347,3112
1.100,1.100,3112
1.101,0.772,3116
1.102,0.352,3116
1.103,-0.125,3116
1.104,-0.642,3116
1.105,-1.137,3116
1.106,-1.583,3116
1.107,-1.903,3116
1.108,-2.053,3116
1.109,-2.045,3116
1.110,-1.850,3116
1.111,-1.525,3164
1.112,-1.073,3164
1.113,-0.595,3164
1.114,-0.107,3164
1.115,0.393,3164
1.116,0.848,3164
1.117,1.153,3164
1.118,1.317,3164
1.119,1.302,3164
1.120,0.688,3130
1.121,-0.188,3130
1.122,-0.672,3130
1.123,-1.163,3130
1.124,-1.613,3130
1.125,-1.923,3130
1.126,-2.062,3130
1.127,-2.058,3130
1.128,-1.867,3130
1.129,-1.535,3128
1.130,-1.073,3128
1.131,-0.588,3128
1.132,-0.072,3128
1.133,0.417,3128
1.134,0.870,3128
1.135,1.188,3128
1.136,1.340,3128
1.137,1.333,3128
1.138,1.133,3128
1.139,0.787,3115
1.140,-0.207,3115
1.141,-0.645,3115
1.142,-1.140,3115
1.143,-1.603,3115
1.144,-1.923,3115
1.145,-2.062,3115
1.146,-2.062,3115
1.147,-1.875,3115
1.148,-1.552,3122
1.149,-1.103,3122
1.150,-0.623,3122
1.151,-0.122,3122
1.152,0.383,3122
1.153,0.863,3122
1.154,1.173,3122
1.155,1.347,3122
1.156,1.343,3122
1.157,1.165,3122
1.158,0.818,3130
1.159,0.347,3130
1.160,-0.710,3130
1.161,-1.133,3130
1.162,-1.583,3130
1.163,-1.923,3130
1.164,-2.065,3130
1.165,-2.062,3130
1.166,-1.883,3130
1.167,-1.562,3145
1.168,-1.103,3145
1.169,-0.625,3145
1.170,-0.128,3145
1.171,0.383,3145
1.172,0.833,3145
1.173,1.157,3145
1.174,1.333,3145
1.175,1.340,3145
1.176,1.153,3145
1.177,0.828,3141
1.178,0.383,3141
1.179,-0.098,3141
1.180,-1.188,3141
1.181,-1.573,3141
1.182,-1.893,3141
1.183,-2.060,3141
1.184,-2.065,3141
1.185,-1.897,3141
1.186,-1.583,3148
1.187,-1.147,3148
1.188,-0.690,3148
1.189,-0.203,3148
1.190,0.307,3148
1.191,0.772,3148
1.192,1.113,3148
1.193,1.310,3148
1.194,1.330,3148
1.195,1.153,3148
1.196,0.848,3136
1.197,0.407,3136
1.198,-0.083,3136
1.199,-0.583,3136
1.200,-1.623,3136
1.201,-1.895,3136
1.202,-2.067,3136
1.203,-2.092,3136
1.204,-1.923,3136
1.205,-1.607,3119
1.206,-1.163,3119
1.207,-0.688,3119
1.208,-0.177,3119
1.209,0.335,3119
1.210,0.790,3119
1.211,1.137,3119
1.212,1.323,3119
1.213,1.340,3119
1.214,1.170,3119
1.215,0.853,3126
1.216,0.412,3126
1.217,-0.065,3126
1.218,-0.570,3126
1.219,-1.077,3126
1.220,-1.938,3126
1.221,-2.083,3126
1.222,-2.100,3126
1.223,-1.930,3126
1.224,-1.617,3141
1.225,-1.177,3141
1.226,-0.698,3141
1.227,-0.190,3141
1.228,0.318,3141
1.229,0.780,3141
1.230,1.130,3141
1.231,1.323,3141
1.232,1.330,3141
1.233,1.163,3141
1.234,0.850,3141
1.235,0.400,3141
1.236,-0.083,3141
1.237,-0.588,3141
1.238,-1.093,3141
1.239,-1.548,3141
1.240,-2.058,3141
1.241,-2.062,3141
1.242,-1.893,3141
1.243,-1.577,3124
1.244,-1.143,3124
1.245,-0.672,3124
1.246,-0.177,3124
1.247,0.340,3124
1.248,0.787,3124
1.249,1.133,3124
1.250,1.312,3124
1.251,1.333,3124
1.252,1.153,3124
1.253,0.838,3128
1.254,0.398,3128
1.255,-0.068,3128
1.256,-0.573,3128
1.257,-1.085,3128
1.258,-1.665,3128
1.259,-1.893,3128
1.260,-2.098,3128
1.261,-1.952,3128
1.262,-1.650,3122
1.263,-1.208,3122
1.264,-0.738,3122
1.265,-0.233,3122
1.266,0.278,3122
1.267,0.748,3122
1.268,1.097,3122
1.269,1.298,3122
1.270,1.317,3122
1.271,1.145,3122
1.272,0.833,3127
1.273,0.393,3127
1.274,-0.075,3127
1.275,-0.573,3127
1.276,-1.067,3127
1.277,-1.532,3127
1.278,-1.867,3127
1.279,-2.058,3127
1.280,-1.873,3127
1.281,-1.607,3127
1.282,-1.183,3105
1.283,-0.708,3105
1.284,-0.215,3105
1.285,0.300,3105
1.286,0.767,3105
1.287,1.113,3105
1.288,1.312,3105
1.289,1.340,3105
1.290,1.188,3105
1.291,0.875,3105
1.292,0.438,3120
1.293,-0.052,3120
1.294,-0.545,3120
1.295,-1.058,3120
1.296,-1.630,3120
1.297,-1.887,3120
1.298,-2.083,3120
1.299,-2.107,3120
1.300,-1.583,3116
1.301,-0.733,3116
1.302,-0.242,3116
1.303,0.263,3116
1.304,0.718,3116
1.305,1.077,3116
1.306,1.262,3116
1.307,1.312,3116
1.308,1.167,3116
1.309,0.863,3116
1.310,0.448,3132
1.311,-0.043,3132
1.312,-0.537,3132
1.313,-1.028,3132
1.314,-1.502,3132
1.315,-1.853,3132
1.316,-2.033,3132
1.317,-2.058,3132
1.318,-1.903,3132
1.319,-1.613,3132
1.320,-0.642,3109
1.321,0.302,3109
1.322,0.770,3109
1.323,1.115,3109
1.324,1.327,3109
1.325,1.353,3109
1.326,1.195,3109
1.327,0.897,3109
1.328,0.468,3109
1.329,-0.018,3109
1.330,-0.512,3109
1.331,-1.022,3109
1.332,-1.492,3109
1.333,-1.840,3109
1.334,-2.022,3109
1.335,-2.058,3109
1.336,-1.923,3109
1.337,-1.627,3109
1.338,-1.208,3112
1.339,-0.730,3112
1.340,0.347,3112
1.341,0.733,3112
1.342,1.090,3112
1.343,1.300,3112
1.344,1.333,3112
1.345,1.180,3112
1.346,0.858,3112
1.347,0.458,3107
1.348,-0.048,3107
1.349,-0.525,3107
1.350,-1.028,3107
1.351,-1.498,3107
1.352,-1.857,3107
1.353,-2.042,3107
1.354,-2.085,3107
1.355,-1.938,3107
1.356,-1.643,3107
1.357,-1.220,3108
1.358,-0.735,3108
1.359,-0.258,3108
1.360,0.782,3108
1.361,1.077,3108
1.362,1.300,3108
1.363,1.340,3108
1.364,1.195,3108
1.365,0.902,3108
1.366,0.497,3102
1.367,0.020,3102
1.368,-0.465,3102
1.369,-0.978,3102
1.370,-1.458,3102
1.371,-1.817,3102
1.372,-2.020,3102
1.373,-2.053,3102
1.374,-1.927,3102
1.375,-1.643,3102
1.376,-1.215,3107
1.377,-0.738,3107
1.378,-0.253,3107
1.379,0.258,3107
1.380,1.120,3107
1.381,1.298,3107
1.382,1.347,3107
1.383,1.195,3107
1.384,0.902,3107
1.385,0.497,3084
1.386,0.018,3084
1.387,-0.485,3084
1.388,-0.993,3084
1.389,-1.472,3084
1.390,-1.843,3084
1.391,-2.047,3084
1.392,-2.095,3084
1.393,-1.968,3084
1.394,-1.670,3084
1.395,-1.255,3131
1.396,-0.767,3131
1.397,-0.282,3131
1.398,0.228,3131
1.399,0.703,3131
1.400,1.302,3131
1.401,1.327,3131
1.402,1.188,3131
1.403,0.902,3131
1.404,0.497,3126
1.405,0.028,3126
1.406,-0.458,3126
1.407,-0.950,3126
1.408,-1.427,3126
1.409,-1.792,3126
1.410,-1.995,3126
1.411,-2.053,3126
1.412,-1.925,3126
1.413,-1.643,3126
1.414,-1.228,3132
1.415,-0.750,3132
1.416,-0.273,3132
1.417,0.237,3132
1.418,0.708,3132
1.419,1.077,3132
1.420,1.340,3132
1.421,1.210,3132
1.422,0.917,3132
1.423,0.527,3142
1.424,0.052,3142
1.425,-0.438,3142
1.426,-0.943,3142
1.427,-1.413,3142
1.428,-1.782,3142
1.429,-1.982,3142
1.430,-2.033,3142
1.431,-1.905,3142
1.432,-1.633,3142
1.433,-1.222,3135
1.434,-0.752,3135
1.435,-0.268,3135
1.436,0.228,3135
1.437,0.698,3135
1.438,1.058,3135
1.439,1.262,3135
1.440,1.167,3135
1.441,0.917,3135
1.442,0.527,3136
1.443,0.028,3136
1.444,-0.443,3136
1.445,-0.968,3136
1.446,-1.452,3136
1.447,-1.827,3136
1.448,-2.045,3136
1.449,-2.105,3136
1.450,-1.982,3136
1.451,-1.712,3136
1.452,-1.298,3129
1.453,-0.815,3129
1.454,-0.328,3129
1.455,0.185,3129
1.456,0.670,3129
1.457,1.048,3129
1.458,1.262,3129
1.459,1.333,3129
1.460,0.863,3129
1.461,0.502,3127
1.462,0.052,3127
1.463,-0.425,3127
1.464,-0.930,3127
1.465,-1.407,3127
1.466,-1.788,3127
1.467,-2.002,3127
1.468,-2.060,3127
1.469,-1.942,3127
1.470,-1.667,3127
1.471,-1.255,3128
1.472,-0.782,3128
1.473,-0.297,3128
1.474,0.212,3128
1.475,0.675,3128
1.476,1.050,3128
1.477,1.268,3128
1.478,1.337,3128
1.479,1.222,3128
1.480,0.477,3136
1.481,-0.412,3136
1.482,-0.912,3136
1.483,-1.387,3136
1.484,-1.780,3136
1.485,-1.992,3136
1.486,-2.060,3136
1.487,-1.965,3136
1.488,-1.692,3136
1.489,-1.298,3122
1.490,-0.820,3122
1.491,-0.333,3122
1.492,0.188,3122
1.493,0.667,3122
1.494,1.058,3122
1.495,1.272,3122
1.496,1.353,3122
1.497,1.230,3122
1.498,0.958,3122
1.499,0.555,3119
1.500,-0.512,3119
1.501,-0.943,3119
1.502,-1.413,3119
1.503,-1.790,3119
1.504,-2.018,3119
1.505,-2.087,3119
1.506,-1.980,3119
1.507,-1.712,3119
1.508,-1.327,3132
1.509,-0.848,3132
1.510,-0.367,3132
1.511,0.142,3132
1.512,0.618,3132
1.513,1.022,3132
1.514,1.258,3132
1.515,1.343,3132
1.516,1.228,3132
1.517,0.973,3132
1.518,0.573,3103
1.519,0.102,3103
1.520,-0.978,3103
1.521,-1.403,3103
1.522,-1.782,3103
1.523,-2.007,3103
1.524,-2.087,3103
1.525,-1.978,3103
1.526,-1.708,3103
1.527,-1.312,3097
1.528,-0.828,3097
1.529,-0.345,3097
1.530,0.175,3097
1.531,0.657,3097
1.532,1.052,3097
1.533,1.300,3097
1.534,1.377,3097
1.535,1.268,3097
1.536,1.012,3097
1.537,0.613,3097
1.538,0.133,3111
1.539,-0.372,3111
1.540,-1.442,3111
1.541,-1.772,3111
1.542,-2.007,3111
1.543,-2.092,3111
1.544,-1.988,3111
1.545,-1.730,3111
1.546,-1.333,3111
1.547,-0.848,3117
1.548,-0.362,3117
1.549,0.152,3117
1.550,0.635,3117
1.551,1.038,3117
1.552,1.300,3117
1.553,1.373,3117
1.554,1.270,3117
1.555,1.018,3117
1.556,0.613,3117
1.557,0.138,3140
1.558,-0.370,3140
1.559,-0.882,3140
1.560,-1.823,3140
1.561,-2.018,3140
1.562,-2.092,3140
1.563,-1.990,3140
1.564,-1.730,3140
1.565,-1.335,3140
1.566,-0.868,3098
1.567,-0.367,3098
1.568,0.138,3098
1.569,0.620,3098
1.570,1.020,3098
1.571,1.248,3098
1.572,1.333,3098
1.573,1.230,3098
1.574,0.975,3098
1.575,0.583,3098
1.576,0.122,3108
1.577,-0.378,3108
1.578,-0.887,3108
1.579,-1.370,3108
1.580,-2.027,3108
1.581,-2.090,3108
1.582,-1.988,3108
1.583,-1.732,3108
1.584,-1.345,3108
1.585,-0.882,3117
1.586,-0.378,3117
1.587,0.117,3117
1.588,0.608,3117
1.589,1.008,3117
1.590,1.255,3117
1.591,1.355,3117
1.592,1.268,3117
1.593,1.025,3117
1.594,0.627,3117
1.595,0.177,3126
1.596,-0.328,3126
1.597,-0.833,3126
1.598,-1.323,3126
1.599,-1.712,3126
1.600,-2.058,3126
1.601,-1.968,3126
1.602,-1.722,3126
1.603,-1.353,3126
1.604,-0.900,3115
1.605,-0.378,3115
1.606,0.102,3115
1.607,0.588,3115
1.608,0.998,3115
1.609,1.252,3115
1.610,1.350,3115
1.611,1.260,3115
1.612,1.015,3115
1.613,0.618,3115
1.614,0.152,3118
1.615,-0.347,3118
1.616,-0.858,3118
1.617,-1.353,3118
1.618,-1.762,3118
1.619,-1.990,3118
1.620,-1.962,3118
1.621,-1.735,3118
1.622,-1.347,3118
1.623,-0.887,3113
1.624,-0.388,3113
1.625,0.117,3113
1.626,0.595,3113
1.627,1.008,3113
1.628,1.238,3113
1.629,1.340,3113
1.630,1.252,3113
1.631,1.008,3113
1.632,0.620,3113
1.633,0.155,3116
1.634,-0.333,3116
1.635,-0.845,3116
1.636,-1.327,3116
1.637,-1.712,3116
1.638,-1.978,3116
1.639,-2.047,3116
1.640,-1.673,3116
1.641,-1.350,3116
1.642,-0.882,3140
1.643,-0.378,3140
1.644,0.113,3140
1.645,0.600,3140
1.646,1.018,3140
1.647,1.262,3140
1.648,1.357,3140
1.649,1.272,3140
1.650,1.022,3140
1.651,0.635,3140
1.652,0.182,3122
1.653,-0.325,3122
1.654,-0.820,3122
1.655,-1.302,3122
1.656,-1.702,3122
1.657,-1.952,3122
1.658,-2.033,3122
1.659,-1.962,3122
1.660,-1.258,3122
1.661,-0.873,3130
1.662,-0.383,3130
1.663,0.113,3130
1.664,0.595,3130
1.665,1.012,3130
1.666,1.262,3130
1.667,1.373,3130
1.668,1.300,3130
1.669,1.052,3130
1.670,0.677,3130
1.671,0.220,3111
1.672,-0.282,3111
1.673,-0.782,3111
1.674,-1.262,3111
1.675,-1.690,3111
1.676,-1.952,3111
1.677,-2.053,3111
1.678,-1.982,3111
1.679,-1.748,3111
1.680,-0.823,3139
1.681,0.107,3139
1.682,0.588,3139
1.683,1.005,3139
1.684,1.260,3139
1.685,1.380,3139
1.686,1.312,3139
1.687,1.060,3139
1.688,0.672,3139
1.689,0.212,3138
1.690,-0.287,3138
1.691,-0.810,3138
1.692,-1.298,3138
1.693,-1.708,3138
1.694,-1.968,3138
1.695,-2.083,3138
1.696,-2.018,3138
1.697,-1.788,3138
1.698,-1.420,3138
1.699,-0.963,3139
1.700,0.115,3139
1.701,0.527,3139
1.702,0.935,3139
1.703,1.212,3139
1.704,1.333,3139
1.705,1.262,3139
1.706,1.032,3139
1.707,0.667,3139
1.708,0.217,3136
1.709,-0.292,3136
1.710,-0.782,3136
1.711,-1.292,3136
1.712,-1.702,3136
1.713,-1.968,3136
1.714,-2.083,3136
1.715,-2.007,3136
1.716,-1.782,3136
1.717,-1.413,3136
1.718,-0.948,3144
1.719,-0.460,3144
1.720,0.590,3144
1.721,0.983,3144
1.722,1.235,3144
1.723,1.337,3144
1.724,1.270,3144
1.725,1.048,3144
1.726,0.688,3144
1.727,0.230,3127
1.728,-0.263,3127
1.729,-0.780,3127
1.730,-1.262,3127
1.731,-1.688,3127
1.732,-1.952,3127
1.733,-2.053,3127
1.734,-1.990,3127
1.735,-1.745,3127
1.736,-1.393,3127
1.737,-0.932,3134
1.738,-0.448,3134
1.739,0.062,3134
1.740,1.028,3134
1.741,1.248,3134
1.742,1.350,3134
1.743,1.295,3134
1.744,1.058,3134
1.745,0.685,3134
1.746,0.225,3123
1.747,-0.287,3123
1.748,-0.782,3123
1.749,-1.292,3123
1.750,-1.702,3123
1.751,-1.978,3123
1.752,-2.090,3123
1.753,-2.033,3123
1.754,-1.810,3123
1.755,-1.440,3123
1.756,-0.973,3118
1.757,-0.487,3118
1.758,0.018,3118
1.759,0.505,3118
1.760,1.232,3118
1.761,1.333,3118
1.762,1.268,3118
1.763,1.055,3118
1.764,0.703,3118
1.765,0.247,3128
1.766,-0.255,3128
1.767,-0.750,3128
1.768,-1.238,3128
1.769,-1.670,3128
1.770,-1.950,3128
1.771,-2.062,3128
1.772,-2.022,3128
1.773,-1.817,3128
1.774,-1.452,3128
1.775,-1.002,3118
1.776,-0.500,3118
1.777,-0.010,3118
1.778,0.497,3118
1.779,0.927,3118
1.780,1.367,3118
1.781,1.308,3118
1.782,1.087,3118
1.783,0.735,3118
1.784,0.275,3118
1.785,-0.220,3126
1.786,-0.748,3126
1.787,-1.232,3126
1.788,-1.667,3126
1.789,-1.948,3126
1.790,-2.085,3126
1.791,-2.033,3126
1.792,-1.830,3126
1.793,-1.472,3126
1.794,-1.018,3126
1.795,-0.535,3108
1.796,-0.025,3108
1.797,0.463,3108
1.798,0.902,3108
1.799,1.188,3108
1.800,1.238,3108
1.801,1.048,3108
1.802,0.703,3108
1.803,0.255,3108
1.804,-0.228,3113
1.805,-0.750,3113
1.806,-1.248,3113
1.807,-1.688,3113
1.808,-1.970,3113
1.809,-2.092,3113
1.810,-2.047,3113
1.811,-1.833,3113
1.812,-1.472,3113
1.813,-1.028,3113
1.814,-0.542,3111
1.815,-0.048,3111
1.816,0.448,3111
1.817,0.873,3111
1.818,1.157,3111
1.819,1.300,3111
1.820,0.985,3111
1.821,0.598,3111
1.822,0.230,3111
1.823,-0.253,3114
1.824,-0.770,3114
1.825,-1.235,3114
1.826,-1.667,3114
1.827,-1.948,3114
1.828,-2.067,3114
1.829,-2.030,3114
1.830,-1.817,3114
1.831,-1.465,3114
1.832,-0.978,3114
1.833,-0.522,3121
1.834,-0.007,3121
1.835,0.502,3121
1.836,0.927,3121
1.837,1.222,3121
1.838,1.357,3121
1.839,1.323,3121
1.840,0.677,3121
1.841,0.292,3121
1.842,-0.207,3122
1.843,-0.715,3122
1.844,-1.208,3122
1.845,-1.633,3122
1.846,-1.930,3122
1.847,-2.053,3122
1.848,-2.018,3122
1.849,-1.812,3122
1.850,-1.468,3122
1.851,-1.022,3122
1.852,-0.545,3100
1.853,-0.043,3100
1.854,0.458,3100
1.855,0.892,3100
1.856,1.192,3100
1.857,1.337,3100
1.858,1.308,3100
1.859,1.103,3100
1.860,0.242,3100
1.861,-0.163,3109
1.862,-0.667,3109
1.863,-1.153,3109
1.864,-1.603,3109
1.865,-1.887,3109
1.866,-2.022,3109
1.867,-1.992,3109
1.868,-1.800,3109
1.869,-1.448,3109
1.870,-0.995,3109
1.871,-0.522,3109
1.872,-0.018,3109
1.873,0.477,3109
1.874,0.925,3109
1.875,1.220,3109
1.876,1.370,3109
1.877,1.343,3109
1.878,1.135,3109
1.879,0.777,3109
1.880,-0.247,3107
1.881,-1.183,3107
1.882,-1.627,3107
1.883,-1.933,3107
1.884,-2.080,3107
1.885,-2.053,3107
1.886,-1.853,3107
1.887,-1.510,3107
1.888,-1.067,3107
1.889,-0.578,3111
1.890,-0.072,3111
1.891,0.422,3111
1.892,0.868,3111
1.893,1.175,3111
1.894,1.333,3111
1.895,1.312,3111
1.896,1.110,3111
1.897,0.767,3111
1.898,0.338,3111
1.899,-0.163,3119
1.900,-1.262,3119
1.901,-1.647,3119
1.902,-1.930,3119
1.903,-2.060,3119
1.904,-2.047,3119
1.905,-1.857,3119
1.906,-1.512,3119
1.907,-1.073,3119
1.908,-0.590,3131
1.909,-0.068,3131
1.910,0.417,3131
1.911,0.868,3131
1.912,1.180,3131
1.913,1.337,3131
1.914,1.323,3131
1.915,1.113,3131
1.916,0.767,3131
1.917,0.338,3131
1.918,-0.150,3113
1.919,-0.672,3113
1.920,-1.667,3113
1.921,-1.923,3113
1.922,-2.058,3113
1.923,-2.047,3113
1.924,-1.857,3113
1.925,-1.522,3113
1.926,-1.077,3113
1.927,-0.603,3130
1.928,-0.072,3130
1.929,0.410,3130
1.930,0.858,3130
1.931,1.173,3130
1.932,1.327,3130
1.933,1.312,3130
1.934,1.100,3130
1.935,0.767,3130
1.936,0.307,3130
1.937,-0.182,3134
1.938,-0.703,3134
1.939,-1.188,3134
1.940,-1.975,3134
1.941,-2.087,3134
1.942,-2.062,3134
1.943,-1.870,3134
1.944,-1.532,3134
1.945,-1.085,3134
1.946,-0.590,3137
1.947,-0.095,3137
1.948,0.410,3137
1.949,0.855,3137
1.950,1.167,3137
1.951,1.327,3137
1.952,1.323,3137
1.953,1.117,3137
1.954,0.782,3137
1.955,0.352,3137
1.956,-0.133,3132
1.957,-0.657,3132
1.958,-1.143,3132
1.959,-1.613,3132
1.960,-2.087,3132
1.961,-2.062,3132
1.962,-1.875,3132
1.963,-1.545,3132
1.964,-1.107,3132
1.965,-0.623,3133
1.966,-0.117,3133
1.967,0.372,3133
1.968,0.818,3133
1.969,1.137,3133
1.970,1.302,3133
1.971,1.302,3133
1.972,1.117,3133
1.973,0.785,3133
1.974,0.357,3133
1.975,-0.125,3141
1.976,-0.650,3141
1.977,-1.140,3141
1.978,-1.585,3141
1.979,-1.905,3141
1.980,-2.027,3141
1.981,-1.857,3141
1.982,-1.538,3141
1.983,-1.097,3141
1.984,-0.608,3133
1.985,-0.102,3133
1.986,0.388,3133
1.987,0.833,3133
1.988,1.153,3133
1.989,1.317,3133
1.990,1.312,3133
1.991,1.115,3133
1.992,0.795,3133
1.993,0.372,3133
1.994,-0.110,3141
1.995,-0.642,3141
1.996,-1.133,3141
1.997,-1.583,3141
1.998,-1.903,3141
1.999,-2.060,3141
2.000,-1.840,3141
2.001,-1.548,3141
2.002,-1.103,3141
2.003,-0.623,3113
2.004,-0.113,3113
2.005,0.380,3113
2.006,0.830,3113
2.007,1.153,3113
2.008,1.327,3113
2.009,1.327,3113
2.010,1.137,3113
2.011,0.792,3113
2.012,0.375,3113
2.013,-0.107,3094
2.014,-0.642,3094
2.015,-1.135,3094
2.016,-1.603,3094
2.017,-1.933,3094
2.018,-2.092,3094
2.019,-2.092,3094
2.020,-1.502,3094
2.021,-1.137,3094
2.022,-0.652,3107
2.023,-0.142,3107
2.024,0.352,3107
2.025,0.833,3107
2.026,1.147,3107
2.027,1.310,3107
2.028,1.312,3107
2.029,1.117,3107
2.030,0.790,3107
2.031,0.372,3107
2.032,-0.105,3119
2.033,-0.642,3119
2.034,-1.103,3119
2.035,-1.562,3119
2.036,-1.893,3119
2.037,-2.062,3119
2.038,-2.062,3119
2.039,-1.900,3119
2.040,-1.067,3119
2.041,-0.672,3119
2.042,-0.180,3112
2.043,0.340,3112
2.044,0.782,3112
2.045,1.117,3112
2.046,1.298,3112
2.047,1.312,3112
2.048,1.147,3112
2.049,0.828,3112
2.050,0.407,3112
2.051,-0.070,3112
2.052,-0.573,3136
2.053,-1.077,3136
2.054,-1.530,3136
2.055,-1.863,3136
2.056,-2.027,3136
2.057,-2.050,3136
2.058,-1.887,3136
2.059,-1.567,3136
2.060,-0.573,3122
2.061,0.352,3122
2.062,0.797,3122
2.063,1.143,3122
2.064,1.325,3122
2.065,1.337,3122
2.066,1.157,3122
2.067,0.843,3122
2.068,0.412,3122
2.069,-0.072,3122
2.070,-0.573,3124
2.071,-1.085,3124
2.072,-1.542,3124
2.073,-1.873,3124
2.074,-2.042,3124
2.075,-2.053,3124
2.076,-1.887,3124
2.077,-1.573,3124
2.078,-1.143,3124
2.079,-0.660,3124
2.080,0.422,3103
2.081,1.143,3103
2.082,1.327,3103
2.083,1.340,3103
2.084,1.167,3103
2.085,0.843,3103
2.086,0.417,3103
2.087,-0.062,3103
2.088,-0.565,3120
2.089,-1.073,3120
2.090,-1.535,3120
2.091,-1.867,3120
2.092,-2.053,3120
2.093,-2.087,3120
2.094,-1.930,3120
2.095,-1.633,3120
2.096,-1.188,3120
2.097,-0.725,3120
2.098,-0.223,3106
2.099,0.278,3106
2.100,1.113,3106
2.101,1.255,3106
2.102,1.272,3106
2.103,1.137,3106
2.104,0.833,3106
2.105,0.410,3106
2.106,-0.068,3106
2.107,-0.565,3118
2.108,-1.070,3118
2.109,-1.528,3118
2.110,-1.870,3118
2.111,-2.053,3118
2.112,-2.087,3118
2.113,-1.927,3118
2.114,-1.623,3118
2.115,-1.190,3118
2.116,-0.728,3118
2.117,-0.228,3122
2.118,0.285,3122
2.119,0.738,3122
2.120,1.262,3122
2.121,1.268,3122
2.122,1.117,3122
2.123,0.825,3122
2.124,0.407,3122
2.125,-0.062,3122
2.126,-0.562,3114
2.127,-1.077,3114
2.128,-1.538,3114
2.129,-1.870,3114
2.130,-2.047,3114
2.131,-2.085,3114
2.132,-1.933,3114
2.133,-1.627,3114
2.134,-1.192,3114
2.135,-0.723,3114
2.136,-0.228,3132
2.137,0.287,3132
2.138,0.740,3132
2.139,1.090,3132
2.140,1.300,3132
2.141,1.137,3132
2.142,0.838,3132
2.143,0.417,3132
2.144,-0.068,3132
2.145,-0.565,3125
2.146,-1.073,3125
2.147,-1.548,3125
2.148,-1.895,3125
2.149,-2.087,3125
2.150,-2.123,3125
2.151,-1.982,3125
2.152,-1.688,3125
2.153,-1.250,3125
2.154,-0.775,3125
2.155,-0.285,3119
2.156,0.228,3119
2.157,0.700,3119
2.158,1.058,3119
2.159,1.258,3119
2.160,1.113,3119
2.161,0.863,3119
2.162,0.448,3119
2.163,-0.030,3119
2.164,-0.537,3141
2.165,-1.060,3141
2.166,-1.525,3141
2.167,-1.875,3141
2.168,-2.067,3141
2.169,-2.112,3141
2.170,-1.972,3141
2.171,-1.667,3141
2.172,-1.238,3141
2.173,-0.755,3141
2.174,-0.258,3123
2.175,0.258,3123
2.176,0.718,3123
2.177,1.087,3123
2.178,1.298,3123
2.179,1.333,3123
2.180,0.820,3123
2.181,0.432,3123
2.182,-0.018,3123
2.183,-0.507,3132
2.184,-1.020,3132
2.185,-1.490,3132
2.186,-1.847,3132
2.187,-2.038,3132
2.188,-2.085,3132
2.189,-1.950,3132
2.190,-1.655,3132
2.191,-1.228,3132
2.192,-0.750,3132
2.193,-0.258,3099
2.194,0.258,3099
2.195,0.738,3099
2.196,1.097,3099
2.197,1.308,3099
2.198,1.347,3099
2.199,1.198,3099
2.200,0.410,3099
2.201,-0.013,3099
2.202,-0.507,3139
2.203,-1.032,3139
2.204,-1.500,3139
2.205,-1.853,3139
2.206,-2.053,3139
2.207,-2.095,3139
2.208,-1.952,3139
2.209,-1.657,3139
2.210,-1.228,3139
2.211,-0.752,3139
2.212,-0.268,3123
2.213,0.230,3123
2.214,0.690,3123
2.215,1.038,3123
2.216,1.238,3123
2.217,1.300,3123
2.218,1.165,3123
2.219,0.853,3123
2.220,-0.090,3123
2.221,-0.522,3124
2.222,-1.008,3124
2.223,-1.472,3124
2.224,-1.847,3124
2.225,-2.047,3124
2.226,-2.087,3124
2.227,-1.948,3124
2.228,-1.660,3124
2.229,-1.238,3124
2.230,-0.757,3124
2.231,-0.270,3095
2.232,0.237,3095
2.233,0.703,3095
2.234,1.067,3095
2.235,1.268,3095
2.236,1.327,3095
2.237,1.185,3095
2.238,0.897,3095
2.239,0.477,3095
2.240,-0.575,3126
2.241,-1.492,3126
2.242,-1.827,3126
2.243,-2.027,3126
2.244,-2.087,3126
2.245,-1.952,3126
2.246,-1.663,3126
2.247,-1.238,3126
2.248,-0.765,3126
2.249,-0.268,3073
2.250,0.250,3073
2.251,0.713,3073
2.252,1.080,3073
2.253,1.308,3073
2.254,1.347,3073
2.255,1.218,3073
2.256,0.920,3073
2.257,0.527,3073
2.258,0.058,3073
2.259,-0.448,3120
2.260,-1.515,3120
2.261,-1.823,3120
2.262,-2.033,3120
2.263,-2.098,3120
2.264,-1.972,3120
2.265,-1.688,3120
2.266,-1.268,3120
2.267,-0.802,3120
2.268,-0.297,3132
2.269,0.217,3132
2.270,0.688,3132
2.271,1.067,3132
2.272,1.298,3132
2.273,1.357,3132
2.274,1.228,3132
2.275,0.945,3132
2.276,0.540,3132
2.277,0.068,3132
2.278,-0.435,3111
2.279,-0.978,3111
2.280,-1.895,3111
2.281,-2.083,3111
2.282,-2.132,3111
2.283,-1.950,3111
2.284,-1.738,3111
2.285,-1.335,3111
2.286,-0.848,3111
2.287,-0.343,3111
2.288,0.177,3126
2.289,0.667,3126
2.290,1.048,3126
2.291,1.258,3126
2.292,1.337,3126
2.293,1.208,3126
2.294,0.932,3126
2.295,0.537,3126
2.296,0.062,3126
2.297,-0.448,3126
2.298,-0.968,3123
2.299,-1.448,3123
2.300,-2.058,3123
2.301,-1.962,3123
2.302,-1.688,3123
2.303,-1.310,3123
2.304,-0.835,3123
2.305,-0.355,3123
2.306,0.150,3126
2.307,0.630,3126
2.308,1.028,3126
2.309,1.248,3126
2.310,1.337,3126
2.311,1.218,3126
2.312,0.948,3126
2.313,0.550,3126
2.314,0.092,3126
2.315,-0.427,3126
2.316,-0.922,3110
2.317,-1.410,3110
2.318,-1.792,3110
2.319,-2.007,3110
2.320,-1.895,3110
2.321,-1.700,3110
2.322,-1.302,3110
2.323,-0.823,3110
2.324,-0.338,3121
2.325,0.212,3121
2.326,0.667,3121
2.327,1.052,3121
2.328,1.272,3121
2.329,1.367,3121
2.330,1.248,3121
2.331,0.983,3121
2.332,0.583,3121
2.333,0.113,3121
2.334,-0.378,3121
2.335,-0.897,3104
2.336,-1.390,3104
2.337,-1.772,3104
2.338,-2.002,3104
2.339,-2.067,3104
2.340,-1.653,3104
2.341,-1.290,3104
2.342,-0.833,3104
2.343,-0.352,3104
2.344,0.150,3103
2.345,0.627,3103
2.346,1.025,3103
2.347,1.252,3103
2.348,1.337,3103
2.349,1.228,3103
2.350,0.978,3103
2.351,0.583,3103
2.352,0.117,3103
2.353,-0.380,3103
2.354,-0.892,3129
2.355,-1.383,3129
2.356,-1.778,3129
2.357,-2.002,3129
2.358,-2.085,3129
2.359,-1.980,3129
2.360,-1.255,3129
2.361,-0.845,3129
2.362,-0.375,3129
2.363,0.140,3127
2.364,0.630,3127
2.365,1.030,3127
2.366,1.262,3127
2.367,1.355,3127
2.368,1.255,3127
2.369,1.008,3127
2.370,0.608,3127
2.371,0.142,3127
2.372,-0.352,3127
2.373,-0.870,3124
2.374,-1.355,3124
2.375,-1.748,3124
2.376,-1.982,3124
2.377,-2.058,3124
2.378,-1.972,3124
2.379,-1.712,3124
2.380,-0.782,3124
2.381,-0.347,3124
2.382,0.133,3107
2.383,0.623,3107
2.384,1.022,3107
2.385,1.260,3107
2.386,1.360,3107
2.387,1.268,3107
2.388,1.022,3107
2.389,0.630,3107
2.390,0.177,3107
2.391,-0.323,3107
2.392,-0.830,3077
2.393,-1.340,3077
2.394,-1.728,3077
2.395,-1.978,3077
2.396,-2.060,3077
2.397,-1.972,3077
2.398,-1.722,3077
2.399,-1.343,3077
2.400,-0.328,3077
2.401,0.152,3130
2.402,1.012,3130
2.403,1.222,3130
2.404,1.327,3130
2.405,1.228,3130
2.406,0.988,3130
2.407,0.588,3130
2.408,0.130,3130
2.409,-0.378,3130
2.410,-0.882,3119
2.411,-1.390,3119
2.412,-1.745,3119
2.413,-1.988,3119
2.414,-2.083,3119
2.415,-1.990,3119
2.416,-1.742,3119
2.417,-1.350,3119
2.418,-0.897,3119
2.419,-0.407,3119
2.420,0.667,3150
2.421,1.248,3150
2.422,1.345,3150
2.423,1.258,3150
2.424,1.012,3150
2.425,0.623,3150
2.426,0.172,3150
2.427,-0.333,3150
2.428,-0.848,3140
2.429,-1.337,3140
2.430,-1.728,3140
2.431,-1.978,3140
2.432,-2.058,3140
2.433,-1.988,3140
2.434,-1.742,3140
2.435,-1.377,3140
2.436,-0.915,3140
2.437,-0.427,3140
2.438,0.080,3089
2.439,0.568,3089
2.440,1.232,3089
2.441,1.312,3089
2.442,1.220,3089
2.443,0.980,3089
2.444,0.590,3089
2.445,0.140,3089
2.446,-0.343,3089
2.447,-0.843,3144
2.448,-1.340,3144
2.449,-1.732,3144
2.450,-1.982,3144
2.451,-2.065,3144
2.452,-1.992,3144
2.453,-1.768,3144
2.454,-1.380,3144
2.455,-0.912,3144
2.456,-0.432,3144
2.457,0.077,3145
2.458,0.573,3145
2.459,0.958,3145
2.460,1.323,3145
2.461,1.222,3145
2.462,0.993,3145
2.463,0.608,3145
2.464,0.147,3145
2.465,-0.343,3145
2.466,-0.853,3127
2.467,-1.363,3127
2.468,-1.748,3127
2.469,-1.992,3127
2.470,-2.098,3127
2.471,-2.018,3127
2.472,-1.780,3127
2.473,-1.393,3127
2.474,-0.922,3127
2.475,-0.425,3127
2.476,0.098,3122
2.477,0.583,3122
2.478,0.988,3122
2.479,1.232,3122
2.480,1.238,3122
2.481,1.028,3122
2.482,0.660,3122
2.483,0.205,3122
2.484,-0.287,3122
2.485,-0.807,3147
2.486,-1.315,3147
2.487,-1.712,3147
2.488,-1.988,3147
2.489,-2.092,3147
2.490,-2.030,3147
2.491,-1.812,3147
2.492,-1.442,3147
2.493,-0.975,3147
2.494,-0.487,3147
2.495,0.037,3135
2.496,0.535,3135
2.497,0.943,3135
2.498,1.222,3135
2.499,1.343,3135
2.500,0.998,3135
2.501,0.660,3135
2.502,0.217,3135
2.503,-0.268,3135
2.504,-0.777,3127
2.505,-1.298,3127
2.506,-1.702,3127
2.507,-1.980,3127
2.508,-2.085,3127
2.509,-2.020,3127
2.510,-1.800,3127
2.511,-1.423,3127
2.512,-0.973,3127
2.513,-0.487,3127
2.514,0.030,3115
2.515,0.782,3115
2.516,1.195,3115
2.517,1.323,3115
2.518,1.262,3115
2.519,1.032,3115
2.520,0.142,3115
2.521,-0.287,3115
2.522,-0.767,3132
2.523,-1.290,3132
2.524,-1.692,3132
2.525,-1.962,3132
2.526,-2.062,3132
2.527,-2.013,3132
2.528,-1.790,3132
2.529,-1.442,3132
2.530,-0.978,3132
2.531,-0.497,3132
2.532,-0.007,3105
2.533,0.497,3105
2.534,0.897,3105
2.535,1.165,3105
2.536,1.270,3105
2.537,1.220,3105
2.538,1.008,3105
2.539,0.652,3105
2.540,-0.352,3105
2.541,-0.830,3132
2.542,-1.300,3132
2.543,-1.698,3132
2.544,-1.950,3132
2.545,-2.062,3132
2.546,-2.010,3132
2.547,-1.782,3132
2.548,-1.413,3132
2.549,-0.963,3132
2.550,-0.465,3132
2.551,0.045,3132
2.552,0.525,3129
2.553,0.943,3129
2.554,1.215,3129
2.555,1.333,3129
2.556,1.268,3129
2.557,1.052,3129
2.558,0.685,3129
2.559,0.228,3129
2.560,-0.858,3106
2.561,-1.728,3106
2.562,-1.988,3106
2.563,-2.103,3106
2.564,-2.045,3106
2.565,-1.830,3106
2.566,-1.468,3106
2.567,-1.005,3106
2.568,-0.512,3106
2.569,-0.018,3106
2.570,0.495,3136
2.571,0.917,3136
2.572,1.198,3136
2.573,1.330,3136
2.574,1.292,3136
2.575,1.062,3136
2.576,0.705,3136
2.577,0.253,3136
2.578,-0.220,3136
2.579,-0.703,3136
2.580,-1.688,3109
2.581,-2.042,3109
2.582,-1.992,3109
2.583,-1.790,3109
2.584,-1.448,3109
2.585,-1.002,3109
2.586,-0.512,3109
2.587,-0.025,3109
2.588,0.468,3107
2.589,0.897,3107
2.590,1.173,3107
2.591,1.300,3107
2.592,1.238,3107
2.593,1.022,3107
2.594,0.667,3107
2.595,0.217,3107
2.596,-0.263,3107
2.597,-0.767,3107
2.598,-1.260,3112
2.599,-1.698,3112
2.600,-2.092,3112
2.601,-2.047,3112
2.602,-1.840,3112
2.603,-1.492,3112
2.604,-1.032,3112
2.605,-0.545,3112
2.606,-0.048,3112
2.607,0.453,3125
2.608,0.902,3125
2.609,1.173,3125
2.610,1.308,3125
2.611,1.258,3125
2.612,1.058,3125
2.613,0.708,3125
2.614,0.265,3125
2.615,-0.220,3125
2.616,-0.733,3125
2.617,-1.222,3116
2.618,-1.667,3116
2.619,-1.952,3116
2.620,-2.050,3116
2.621,-1.857,3116
2.622,-1.520,3116
2.623,-1.067,3116
2.624,-0.580,3116
2.625,-0.072,3116
2.626,0.427,3108
2.627,0.870,3108
2.628,1.167,3108
2.629,1.305,3108
2.630,1.258,3108
2.631,1.062,3108
2.632,0.713,3108
2.633,0.287,3108
2.634,-0.188,3108
2.635,-0.690,3108
2.636,-1.177,3097
2.637,-1.623,3097
2.638,-1.923,3097
2.639,-2.042,3097
2.640,-1.772,3097
2.641,-0.988,3097
2.642,-0.537,3097
2.643,-0.048,3097
2.644,0.453,3128
2.645,0.892,3128
2.646,1.188,3128
2.647,1.335,3128
2.648,1.300,3128
2.649,1.087,3128
2.650,0.735,3128
2.651,0.300,3128
2.652,-0.188,3128
2.653,-0.695,3128
2.654,-1.192,3128
2.655,-1.643,3128
2.656,-1.942,3128
2.657,-2.083,3128
2.658,-2.053,3128
2.659,-1.853,3128
2.660,-0.993,3128
2.661,-0.562,3128
2.662,-0.083,3128
2.663,0.420,3140
2.664,0.868,3140
2.665,1.173,3140
2.666,1.327,3140
2.667,1.308,3140
2.668,1.100,3140
2.669,0.750,3140
2.670,0.302,3140
2.671,-0.182,3140
2.672,-0.698,3140
2.673,-1.188,3129
2.674,-1.633,3129
2.675,-1.938,3129
2.676,-2.062,3129
2.677,-2.047,3129
2.678,-1.847,3129
2.679,-1.492,3129
2.680,-0.492,3129
2.681,-0.055,3129
2.682,0.417,3149
2.683,0.858,3149
2.684,1.150,3149
2.685,1.302,3149
2.686,1.272,3149
2.687,1.087,3149
2.688,0.748,3149
2.689,0.310,3149
2.690,-0.168,3149
2.691,-0.670,3149
2.692,-1.175,3129
2.693,-1.615,3129
2.694,-1.927,3129
2.695,-2.058,3129
2.696,-2.038,3129
2.697,-1.843,3129
2.698,-1.498,3129
2.699,-1.018,3129
2.700,0.058,3129
2.701,0.458,3134
2.702,0.890,3134
2.703,1.188,3134
2.704,1.337,3134
2.705,1.323,3134
2.706,1.103,3134
2.707,0.757,3134
2.708,0.335,3134
2.709,-0.165,3134
2.710,-0.665,3134
2.711,-1.163,3112
2.712,-1.627,3112
2.713,-1.933,3112
2.714,-2.067,3112
2.715,-2.060,3112
2.716,-1.873,3112
2.717,-1.548,3112
2.718,-1.107,3112
2.719,-0.627,3112
2.720,0.463,3139
2.721,1.163,3139
2.722,1.317,3139
2.723,1.312,3139
2.724,1.117,3139
2.725,0.785,3139
2.726,0.350,3139
2.727,-0.133,3139
2.728,-0.652,3139
2.729,-1.147,3111
2.730,-1.613,3111
2.731,-1.927,3111
2.732,-2.085,3111
2.733,-2.060,3111
2.734,-1.875,3111
2.735,-1.538,3111
2.736,-1.097,3111
2.737,-0.608,3111
2.738,-0.107,3111
2.739,0.395,3121
2.740,1.177,3121
2.741,1.312,3121
2.742,1.305,3121
2.743,1.115,3121
2.744,0.780,3121
2.745,0.347,3121
2.746,-0.138,3121
2.747,-0.642,3121
2.748,-1.140,3134
2.749,-1.613,3134
2.750,-1.933,3134
2.751,-2.090,3134
2.752,-2.090,3134
2.753,-1.897,3134
2.754,-1.562,3134
2.755,-1.125,3134
2.756,-0.625,3134
2.757,-0.122,3134
2.758,0.388,3121
2.759,0.838,3121
2.760,1.333,3121
2.761,1.327,3121
2.762,1.105,3121
2.763,0.795,3121
2.764,0.343,3121
2.765,-0.107,3121
2.766,-0.605,3121
2.767,-1.103,3129
2.768,-1.562,3129
2.769,-1.873,3129
2.770,-2.027,3129
2.771,-2.030,3129
2.772,-1.853,3129
2.773,-1.532,3129
2.774,-1.097,3129
2.775,-0.613,3129
2.776,-0.115,3129
2.777,0.383,3130
2.778,0.830,3130
2.779,1.153,3130
2.780,1.333,3130
2.781,1.147,3130
2.782,0.835,3130
2.783,0.380,3130
2.784,-0.095,3130
2.785,-0.593,3130
2.786,-1.100,3111
2.787,-1.573,3111
2.788,-1.887,3111
2.789,-2.045,3111
2.790,-2.050,3111
2.791,-1.870,3111
2.792,-1.552,3111
2.793,-1.125,3111
2.794,-0.640,3111
2.795,-0.130,3111
2.796,0.407,3108
2.797,0.828,3108
2.798,1.153,3108
2.799,1.333,3108
2.800,1.038,3108
2.801,0.367,3108
2.802,-0.072,3108
2.803,-0.580,3108
2.804,-1.093,3108
2.805,-1.555,3122
2.806,-1.897,3122
2.807,-2.058,3122
2.808,-2.065,3122
2.809,-1.903,3122
2.810,-1.585,3122
2.811,-1.160,3122
2.812,-0.682,3122
2.813,-0.182,3122
2.814,0.312,3122
2.815,0.775,3130
2.816,1.110,3130
2.817,1.300,3130
2.818,1.317,3130
2.819,1.137,3130
2.820,0.318,3130
2.821,-0.098,3130
2.822,-0.583,3130
2.823,-1.087,3130
2.824,-1.545,3126
2.825,-1.885,3126
2.826,-2.042,3126
2.827,-2.055,3126
2.828,-1.883,3126
2.829,-1.562,3126
2.830,-1.133,3126
2.831,-0.657,3126
2.832,-0.168,3126
2.833,0.343,3126
2.834,0.787,3108
2.835,1.133,3108
2.836,1.308,3108
2.837,1.312,3108
2.838,1.140,3108
2.839,0.828,3108
2.840,-0.168,3108
2.841,-0.613,3108
2.842,-1.093,3108
2.843,-1.550,3110
2.844,-1.897,3110
2.845,-2.060,3110
2.846,-2.087,3110
2.847,-1.927,3110
2.848,-1.610,3110
2.849,-1.177,3110
2.850,-0.698,3110
2.851,-0.190,3110
2.852,0.312,3110
2.853,0.780,3115
2.854,1.135,3115
2.855,1.323,3115
2.856,1.347,3115
2.857,1.177,3115
2.858,0.860,3115
2.859,0.432,3115
2.860,-0.623,3115
2.861,-1.075,3115
2.862,-1.512,3117
2.863,-1.855,3117
2.864,-2.027,3117
2.865,-2.047,3117
2.866,-1.883,3117
2.867,-1.573,3117
2.868,-1.150,3117
2.869,-0.682,3117
2.870,-0.182,3117
2.871,0.330,3117
2.872,0.772,3116
2.873,1.110,3116
2.874,1.302,3116
2.875,1.327,3116
2.876,1.157,3116
2.877,0.850,3116
2.878,0.417,3116
2.879,-0.060,3116
2.880,-1.143,3116
2.881,-1.605,3111
2.882,-2.045,3111
2.883,-2.058,3111
2.884,-1.897,3111
2.885,-1.600,3111
2.886,-1.163,3111
2.887,-0.685,3111
2.888,-0.185,3111
2.889,0.315,3111
2.890,0.782,3152
2.891,1.150,3152
2.892,1.327,3152
2.893,1.347,3152
2.894,1.183,3152
2.895,0.873,3152
2.896,0.438,3152
2.897,-0.055,3152
2.898,-0.542,3152
2.899,-1.052,3152
2.900,-1.927,3127
2.901,-2.098,3127
2.902,-1.945,3127
2.903,-1.650,3127
2.904,-1.218,3127
2.905,-0.745,3127
2.906,-0.253,3127
2.907,0.258,3127
2.908,0.718,3120
2.909,1.073,3120
2.910,1.260,3120
2.911,1.300,3120
2.912,1.153,3120
2.913,0.858,3120
2.914,0.432,3120
2.915,-0.043,3120
2.916,-0.535,3120
2.917,-1.035,3120
2.918,-1.510,3138
2.919,-1.863,3138
2.920,-2.067,3138
2.921,-1.938,3138
2.922,-1.650,3138
2.923,-1.220,3138
2.924,-0.743,3138
2.925,-0.253,3138
2.926,0.260,3138
2.927,0.728,3126
2.928,1.093,3126
2.929,1.268,3126
2.930,1.323,3126
2.931,1.170,3126
2.932,0.868,3126
2.933,0.448,3126
2.934,-0.040,3126
2.935,-0.530,3126
2.936,-1.045,3126
2.937,-1.512,3130
2.938,-1.867,3130
2.939,-2.047,3130
2.940,-1.885,3130
2.941,-1.173,3130
2.942,-0.723,3130
2.943,-0.230,3130
2.944,0.268,3130
2.945,0.740,3138
2.946,1.103,3138
2.947,1.305,3138
2.948,1.340,3138
2.949,1.195,3138
2.950,0.902,3138
2.951,0.497,3138
2.952,0.022,3138
2.953,-0.487,3138
2.954,-0.990,3138
2.955,-1.460,3129
2.956,-1.820,3129
2.957,-2.007,3129
2.958,-2.035,3129
2.959,-1.903,3129
2.960,-1.103,3129
2.961,-0.690,3129
2.962,-0.217,3129
2.963,0.285,3129
2.964,0.752,3134
2.965,1.107,3134
2.966,1.312,3134
2.967,1.347,3134
2.968,1.198,3134
2.969,0.902,3134
2.970,0.477,3134
2.971,0.015,3134
2.972,-0.487,3134
2.973,-0.993,3134
2.974,-1.470,3122
2.975,-1.850,3122
2.976,-2.045,3122
2.977,-2.098,3122
2.978,-1.962,3122
2.979,-1.673,3122
2.980,-0.710,3122
2.981,-0.273,3122
2.982,0.217,3122
2.983,0.695,3130
2.984,1.067,3130
2.985,1.265,3130
2.986,1.330,3130
2.987,1.202,3130
2.988,0.915,3130
2.989,0.515,3130
2.990,0.050,3130
2.991,-0.453,3130
2.992,-0.968,3130
2.993,-1.445,3131
2.994,-1.817,3131
2.995,-2.018,3131
2.996,-2.062,3131
2.997,-1.935,3131
2.998,-1.647,3131
2.999,-1.230,3131
3.000,-0.182,3131
3.001,0.273,3131
3.002,0.733,3125
3.003,1.107,3125
3.004,1.330,3125
3.005,1.387,3125
3.006,1.250,3125
3.007,0.958,3125
3.008,0.557,3125
3.009,0.087,3125
3.010,-0.420,3125
3.011,-0.925,3125
3.012,-1.410,3138
3.013,-1.792,3138
3.014,-1.992,3138
3.015,-2.047,3138
3.016,-1.927,3138
3.017,-1.630,3138
3.018,-1.218,3138
3.019,-0.743,3138
3.020,0.312,3138
3.021,0.708,3130
3.022,1.077,3130
3.023,1.300,3130
3.024,1.350,3130
3.025,1.212,3130
3.026,0.930,3130
3.027,0.530,3130
3.028,0.060,3130
3.029,-0.445,3130
3.030,-0.940,3130
3.031,-1.417,3141
3.032,-1.802,3141
3.033,-2.007,3141
3.034,-2.062,3141
3.035,-1.952,3141
3.036,-1.683,3141
3.037,-1.298,3141
3.038,-0.823,3141
3.039,-0.338,3141
3.040,0.710,3115
3.041,1.238,3115
3.042,1.310,3115
3.043,1.188,3115
3.044,0.912,3115
3.045,0.515,3115
3.046,0.060,3115
3.047,-0.430,3115
3.048,-0.932,3115
3.049,-1.403,3115
3.050,-1.782,3118
3.051,-1.988,3118
3.052,-2.045,3118
3.053,-1.933,3118
3.054,-1.657,3118
3.055,-1.258,3118
3.056,-0.800,3118
3.057,-0.323,3118
3.058,0.198,3118
3.059,0.662,3118
3.060,1.270,3118
3.061,1.198,3118
3.062,0.927,3118
3.063,0.527,3118
3.064,0.068,3118
3.065,-0.427,3118
3.066,-0.927,3118
3.067,-1.405,3118
3.068,-1.778,3120
3.069,-2.007,3120
3.070,-2.062,3120
3.071,-1.960,3120
3.072,-1.690,3120
3.073,-1.302,3120
3.074,-0.843,3120
3.075,-0.362,3120
3.076,0.158,3120
3.077,0.632,3120
3.078,1.022,3107
3.079,1.258,3107
3.080,1.177,3107
3.081,0.932,3107
3.082,0.527,3107
3.083,0.087,3107
3.084,-0.412,3107
3.085,-0.917,3107
3.086,-1.407,3107
3.087,-1.790,3111
3.088,-2.018,3111
3.089,-2.087,3111
3.090,-1.978,3111
3.091,-1.715,3111
3.092,-1.325,3111
3.093,-0.863,3111
3.094,-0.372,3111
3.095,0.140,3111
3.096,0.618,3111
3.097,1.005,3107
3.098,1.222,3107
3.099,1.302,3107
3.100,0.868,3107
3.101,0.537,3107
3.102,0.062,3107
3.103,-0.425,3107
3.104,-0.932,3107
3.105,-1.413,3107
3.106,-1.800,3111
3.107,-2.022,3111
3.108,-2.095,3111
3.109,-1.988,3111
3.110,-1.728,3111
3.111,-1.333,3111
3.112,-0.863,3111
3.113,-0.378,3111
3.114,0.128,3111
3.115,0.593,3111
3.116,0.993,3119
3.117,1.220,3119
3.118,1.302,3119
3.119,1.190,3119
3.120,0.450,3119
3.121,0.028,3119
3.122,-0.432,3119
3.123,-0.938,3119
3.124,-1.420,3119
3.125,-1.815,3113
3.126,-2.042,3113
3.127,-2.107,3113
3.128,-2.007,3113
3.129,-1.742,3113
3.130,-1.347,3113
3.131,-0.873,3113
3.132,-0.378,3113
3.133,0.130,3113
3.134,0.598,3113
3.135,0.998,3070
3.136,1.230,3070
3.137,1.327,3070
3.138,1.220,3070
3.139,0.955,3070
3.140,0.037,3070
3.141,-0.417,3070
3.142,-0.897,3070
3.143,-1.385,3070
3.144,-1.782,3108
3.145,-2.018,3108
3.146,-2.090,3108
3.147,-1.988,3108
3.148,-1.722,3108
3.149,-1.333,3108
3.150,-0.853,3108
3.151,-0.370,3108
3.152,0.142,3108
3.153,0.618,3108
3.154,1.015,3117
3.155,1.252,3117
3.156,1.337,3117
3.157,1.228,3117
3.158,0.958,3117
3.159,0.573,3117
3.160,-0.458,3117
3.161,-0.887,3117
3.162,-1.373,3117
3.163,-1.770,3122
3.164,-2.018,3122
3.165,-2.098,3122
3.166,-1.992,3122
3.167,-1.735,3122
3.168,-1.347,3122
3.169,-0.873,3122
3.170,-0.388,3122
3.171,0.117,3122
3.172,0.608,3122
3.173,1.005,3142
3.174,1.235,3142
3.175,1.335,3142
3.176,1.232,3142
3.177,0.983,3142
3.178,0.593,3142
3.179,0.138,3142
3.180,-0.963,3142
3.181,-1.353,3142
3.182,-1.765,3152
3.183,-2.005,3152
3.184,-2.092,3152
3.185,-1.992,3152
3.186,-1.742,3152
3.187,-1.363,3152
3.188,-0.887,3152
3.189,-0.388,3152
3.190,0.117,3152
3.191,0.610,3152
3.192,1.008,3136
3.193,1.248,3136
3.194,1.347,3136
3.195,1.250,3136
3.196,1.008,3136
3.197,0.610,3136
3.198,0.152,3136
3.199,-0.340,3136
3.200,-1.407,3136
3.201,-1.732,3139
3.202,-1.990,3139
3.203,-2.087,3139
3.204,-2.002,3139
3.205,-1.768,3139
3.206,-1.380,3139
3.207,-0.912,3139
3.208,-0.422,3139
3.209,0.092,3139
3.210,0.578,3139
3.211,0.983,3129
3.212,1.228,3129
3.213,1.325,3129
3.214,1.230,3129
3.215,0.988,3129
3.216,0.598,3129
3.217,0.133,3129
3.218,-0.367,3129
3.219,-0.892,3129
3.220,-1.847,3137
3.221,-2.152,3137
3.222,-2.087,3137
3.223,-1.830,3137
3.224,-1.458,3137
3.225,-0.980,3137
3.226,-0.465,3137
3.227,0.060,3137
3.228,0.568,3137
3.229,0.993,3134
3.230,1.252,3134
3.231,1.357,3134
3.232,1.302,3134
3.233,1.055,3134
3.234,0.693,3134
3.235,0.212,3134
3.236,-0.282,3134
3.237,-0.802,3134
3.238,-1.298,3134
3.239,-1.705,3144
3.240,-2.058,3144
3.241,-1.990,3144
3.242,-1.748,3144
3.243,-1.305,3144
3.244,-0.902,3144
3.245,-0.448,3144
3.246,0.068,3144
3.247,0.550,3144
3.248,0.973,3131
3.249,1.230,3131
3.250,1.343,3131
3.251,1.268,3131
3.252,1.038,3131
3.253,0.665,3131
3.254,0.210,3131
3.255,-0.287,3131
3.256,-0.807,3131
3.257,-1.292,3131
3.258,-1.698,3125
3.259,-1.978,3125
3.260,-1.992,3125
3.261,-1.802,3125
3.262,-1.407,3125
3.263,-0.973,3125
3.264,-0.487,3125
3.265,0.037,3125
3.266,0.527,3125
3.267,0.950,3125
3.268,1.230,3125
3.269,1.347,3125
3.270,1.270,3125
3.271,1.058,3125
3.272,0.690,3125
3.273,0.228,3125
3.274,-0.253,3125
3.275,-0.767,3125
3.276,-1.252,3125
3.277,-1.705,3120
3.278,-1.968,3120
3.279,-2.083,3120
3.280,-1.740,3120
3.281,-1.423,3120
3.282,-0.925,3120
3.283,-0.460,3120
3.284,0.018,3120
3.285,0.502,3120
3.286,0.917,3129
3.287,1.190,3129
3.288,1.302,3129
3.289,1.232,3129
3.290,1.008,3129
3.291,0.632,3129
3.292,0.193,3129
3.293,-0.297,3129
3.294,-0.818,3129
3.295,-1.310,3129
3.296,-1.728,3129
3.297,-2.010,3141
3.298,-2.112,3141
3.299,-2.047,3141
3.300,-1.367,3141
3.301,-0.963,3141
3.302,-0.490,3141
3.303,0.028,3141
3.304,0.532,3141
3.305,0.958,3141
3.306,1.235,3114
3.307,1.353,3114
3.308,1.333,3114
3.309,1.107,3114
3.310,0.752,3114
3.311,0.268,3114
3.312,-0.240,3114
3.313,-0.802,3114
3.314,-1.238,3114
3.315,-1.688,3114
3.316,-1.978,3104
3.317,-2.098,3104
3.318,-2.047,3104
3.319,-1.830,3104
3.320,-0.927,3104
3.321,-0.520,3104
3.322,0.013,3104
3.323,0.502,3104
3.324,0.912,3104
3.325,1.198,3124
3.326,1.333,3124
3.327,1.292,3124
3.328,1.052,3124
3.329,0.693,3124
3.330,0.230,3124
3.331,-0.250,3124
3.332,-0.752,3124
3.333,-1.252,3124
3.334,-1.692,3124
3.335,-1.968,3107
3.336,-2.092,3107
3.337,-2.033,3107
3.338,-1.817,3107
3.339,-1.452,3107
3.340,-0.443,3107
3.341,0.025,3107
3.342,0.505,3107
3.343,0.920,3107
3.344,1.208,3101
3.345,1.337,3101
3.346,1.298,3101
3.347,1.070,3101
3.348,0.713,3101
3.349,0.268,3101
3.350,-0.212,3101
3.351,-0.715,3101
3.352,-1.208,3101
3.353,-1.645,3101
3.354,-1.927,3105
3.355,-2.033,3105
3.356,-2.007,3105
3.357,-1.802,3105
3.358,-1.452,3105
3.359,-0.993,3105
3.360,0.065,3105
3.361,0.460,3105
3.362,0.885,3105
3.363,1.173,3098
3.364,1.310,3098
3.365,1.262,3098
3.366,1.052,3098
3.367,0.693,3098
3.368,0.230,3098
3.369,-0.258,3098
3.370,-0.770,3098
3.371,-1.262,3098
3.372,-1.692,3098
3.373,-1.978,3106
3.374,-2.100,3106
3.375,-2.047,3106
3.376,-1.825,3106
3.377,-1.472,3106
3.378,-1.012,3106
3.379,-0.527,3106
3.380,0.547,3106
3.381,0.917,3106
3.382,1.205,3121
3.383,1.345,3121
3.384,1.323,3121
3.385,1.107,3121
3.386,0.752,3121
3.387,0.302,3121
3.388,-0.185,3121
3.389,-0.693,3121
3.390,-1.192,3121
3.391,-1.643,3121
3.392,-1.933,3120
3.393,-2.058,3120
3.394,-2.033,3120
3.395,-1.827,3120
3.396,-1.475,3120
3.397,-1.025,3120
3.398,-0.537,3120
3.399,-0.043,3120
3.400,0.940,3120
3.401,1.198,3099
3.402,1.325,3099
3.403,1.268,3099
3.404,1.052,3099
3.405,0.688,3099
3.406,0.230,3099
3.407,-0.275,3099
3.408,-0.738,3099
3.409,-1.230,3099
3.410,-1.700,3099
3.411,-1.972,3075
3.412,-2.127,3075
3.413,-2.050,3075
3.414,-1.853,3075
3.415,-1.502,3075
3.416,-1.052,3075
3.417,-0.565,3075
3.418,-0.058,3075
3.419,0.448,3075
3.420,1.218,3119
3.421,1.302,3119
3.422,1.097,3119
3.423,0.757,3119
3.424,0.320,3119
3.425,-0.160,3119
3.426,-0.672,3119
3.427,-1.167,3119
3.428,-1.613,3119
3.429,-1.905,3124
3.430,-2.047,3124
3.431,-2.018,3124
3.432,-1.823,3124
3.433,-1.480,3124
3.434,-1.032,3124
3.435,-0.545,3124
3.436,-0.055,3124
3.437,0.440,3124
3.438,0.885,3124
3.439,1.188,3140
3.440,1.258,3140
3.441,1.087,3140
3.442,0.733,3140
3.443,0.302,3140
3.444,-0.177,3140
3.445,-0.690,3140
3.446,-1.185,3140
3.447,-1.630,3140
3.448,-1.942,3119
3.449,-2.092,3119
3.450,-2.083,3119
3.451,-1.873,3119
3.452,-1.538,3119
3.453,-1.087,3119
3.454,-0.588,3119
3.455,-0.083,3119
3.456,0.425,3119
3.457,0.870,3119
3.458,1.183,3139
3.459,1.337,3139
3.460,1.062,3139
3.461,0.743,3139
3.462,0.312,3139
3.463,-0.175,3139
3.464,-0.688,3139
3.465,-1.180,3139
3.466,-1.633,3139
3.467,-1.935,3150
3.468,-2.087,3150
3.469,-2.053,3150
3.470,-1.827,3150
3.471,-1.508,3150
3.472,-1.065,3150
3.473,-0.585,3150
3.474,-0.090,3150
3.475,0.410,3150
3.476,0.855,3150
3.477,1.173,3139
3.478,1.323,3139
3.479,1.183,3139
3.480,0.253,3139
3.481,-0.147,3139
3.482,-0.662,3139
3.483,-1.167,3139
3.484,-1.647,3139
3.485,-1.938,3136
3.486,-2.058,3136
3.487,-2.047,3136
3.488,-1.863,3136
3.489,-1.535,3136
3.490,-1.097,3136
3.491,-0.623,3136
3.492,-0.115,3136
3.493,0.388,3136
3.494,0.843,3136
3.495,1.165,3125
3.496,1.317,3125
3.497,1.327,3125
3.498,1.107,3125
3.499,0.777,3125
3.500,-0.212,3125
3.501,-0.672,3125
3.502,-1.147,3125
3.503,-1.577,3125
3.504,-1.873,3117
3.505,-2.002,3117
3.506,-1.788,3117
3.507,-1.490,3117
3.508,-1.062,3117
3.509,-0.537,3117
3.510,-0.068,3117
3.511,0.527,3117
3.512,0.902,3117
3.513,1.198,3133
3.514,1.350,3133
3.515,1.340,3133
3.516,1.150,3133
3.517,0.818,3133
3.518,0.372,3133
3.519,-0.113,3133
3.520,-1.212,3133
3.521,-1.583,3133
3.522,-1.890,3128
3.523,-2.053,3128
3.524,-2.033,3128
3.525,-1.853,3128
3.526,-1.522,3128
3.527,-1.073,3128
3.528,-0.588,3128
3.529,-0.098,3128
3.530,0.412,3128
3.531,0.868,3128
3.532,1.188,3116
3.533,1.347,3116
3.534,1.350,3116
3.535,1.167,3116
3.536,0.828,3116
3.537,0.393,3116
3.538,-0.095,3116
3.539,-0.608,3116
3.540,-1.623,3116
3.541,-1.867,3119
3.542,-2.035,3119
3.543,-2.047,3119
3.544,-1.877,3119
3.545,-1.552,3119
3.546,-1.127,3119
3.547,-0.657,3119
3.548,-0.168,3119
3.549,0.343,3119
3.550,0.792,3119
3.551,1.137,3119
3.552,1.310,3121
3.553,1.323,3121
3.554,1.140,3121
3.555,0.818,3121
3.556,0.378,3121
3.557,-0.102,3121
3.558,-0.605,3121
3.559,-1.100,3121
3.560,-1.952,3101
3.561,-2.042,3101
3.562,-1.863,3101
3.563,-1.538,3101
3.564,-1.087,3101
3.565,-0.593,3101
3.566,-0.113,3101
3.567,0.378,3101
3.568,0.830,3101
3.569,1.150,3101
3.570,1.317,3095
3.571,1.087,3095
3.572,0.797,3095
3.573,0.378,3095
3.574,-0.102,3095
3.575,-0.615,3095
3.576,-1.113,3095
3.577,-1.570,3095
3.578,-1.900,3095
3.579,-2.060,3111
3.580,-1.857,3111
3.581,-1.532,3111
3.582,-1.143,3111
3.583,-0.662,3111
3.584,-0.168,3111
3.585,0.347,3111
3.586,0.797,3111
3.587,1.137,3111
3.588,1.327,3102
3.589,1.333,3102
3.590,1.163,3102
3.591,0.835,3102
3.592,0.398,3102
3.593,-0.075,3102
3.594,-0.583,3102
3.595,-1.087,3102
3.596,-1.542,3102
3.597,-1.873,3102
3.598,-2.050,3104
3.599,-2.083,3104
3.600,-1.540,3104
3.601,-1.153,3104
3.602,-0.693,3104
3.603,-0.193,3104
3.604,0.307,3104
3.605,0.772,3104
3.606,1.117,3104
3.607,1.308,3106
3.608,1.333,3106
3.609,1.167,3106
3.610,0.855,3106
3.611,0.422,3106
3.612,-0.052,3106
3.613,-0.552,3106
3.614,-1.058,3106
3.615,-1.528,3106
3.616,-1.863,3106
3.617,-2.047,3106
3.618,-2.062,3106
3.619,-1.923,3106
3.620,-1.095,3106
3.621,-0.660,3106
3.622,-0.177,3106
3.623,0.338,3106
3.624,0.792,3106
3.625,1.153,3106
3.626,1.350,3121
3.627,1.377,3121
3.628,1.212,3121
3.629,0.897,3121
3.630,0.468,3121
3.631,-0.022,3121
3.632,-0.530,3121
3.633,-1.032,3121
3.634,-1.502,3121
3.635,-1.853,3121
3.636,-2.027,3123
3.637,-2.058,3123
3.638,-1.903,3123
3.639,-1.607,3123
3.640,-0.610,3123
3.641,-0.203,3123
3.642,0.347,3123
3.643,0.770,3123
3.644,1.113,3123
3.645,1.270,3122
3.646,1.330,3122
3.647,1.167,3122
3.648,0.858,3122
3.649,0.430,3122
3.650,-0.072,3122
3.651,-0.542,3122
3.652,-1.050,3122
3.653,-1.522,3122
3.654,-1.863,3122
3.655,-2.047,3137
3.656,-2.080,3137
3.657,-1.930,3137
3.658,-1.627,3137
3.659,-1.208,3137
3.660,-0.092,3137
3.661,0.378,3137
3.662,0.757,3137
3.663,1.095,3137
3.664,1.298,3116
3.665,1.327,3116
3.666,1.165,3116
3.667,0.860,3116
3.668,0.415,3116
3.669,-0.028,3116
3.670,-0.522,3116
3.671,-1.105,3116
3.672,-1.512,3116
3.673,-1.853,3116
3.674,-2.020,3127
3.675,-2.033,3127
3.676,-1.883,3127
3.677,-1.603,3127
3.678,-1.147,3127
3.679,-0.703,3127
3.680,0.412,3127
3.681,0.733,3127
3.682,1.073,3127
3.683,1.272,3082
3.684,1.327,3082
3.685,1.177,3082
3.686,0.882,3082
3.687,0.460,3082
3.688,-0.018,3082
3.689,-0.512,3082
3.690,-1.018,3082
3.691,-1.488,3082
3.692,-1.833,3082
3.693,-2.027,3130
3.694,-2.062,3130
3.695,-1.927,3130
3.696,-1.625,3130
3.697,-1.202,3130
3.698,-0.715,3130
3.699,-0.223,3130
3.700,0.818,3130
3.701,1.095,3130
3.702,1.298,3127
3.703,1.340,3127
3.704,1.188,3127
3.705,0.897,3127
3.706,0.495,3127
3.707,0.028,3127
3.708,-0.487,3127
3.709,-0.993,3127
3.710,-1.462,3127
3.711,-1.823,3127
3.712,-2.018,3133
3.713,-2.055,3133
3.714,-1.923,3133
3.715,-1.627,3133
3.716,-1.188,3133
3.717,-0.723,3133
3.718,-0.230,3133
3.719,0.263,3133
3.720,1.120,3133
3.721,1.323,3137
3.722,1.173,3137
3.723,0.892,3137
3.724,0.472,3137
3.725,0.013,3137
3.726,-0.487,3137
3.727,-0.988,3137
3.728,-1.458,3137
3.729,-1.808,3137
3.730,-2.002,3121
3.731,-2.038,3121
3.732,-1.903,3121
3.733,-1.617,3121
3.734,-1.192,3121
3.735,-0.728,3121
3.736,-0.228,3121
3.737,0.268,3121
3.738,0.740,3121
3.739,1.097,3121
3.740,1.347,3136
3.741,0.848,3136
3.742,0.468,3136
3.743,-0.048,3136
3.744,-0.512,3136
3.745,-1.012,3136
3.746,-1.488,3136
3.747,-1.843,3136
3.748,-2.045,3127
3.749,-2.098,3127
3.750,-1.960,3127
3.751,-1.663,3127
3.752,-1.248,3127
3.753,-0.777,3127
3.754,-0.188,3127
3.755,0.258,3127
3.756,0.713,3127
3.757,1.073,3127
3.758,1.298,3143
3.759,1.177,3143
3.760,0.432,3143
3.761,0.055,3143
3.762,-0.460,3143
3.763,-0.975,3143
3.764,-1.538,3143
3.765,-1.873,3143
3.766,-2.038,3110
3.767,-2.092,3110
3.768,-1.965,3110
3.769,-1.673,3110
3.770,-1.258,3110
3.771,-0.787,3110
3.772,-0.297,3110
3.773,0.207,3110
3.774,0.675,3110
3.775,1.052,3110
3.776,1.248,3132
3.777,1.327,3132
3.778,1.190,3132
3.779,0.912,3132
3.780,-0.055,3132
3.781,-0.500,3132
3.782,-0.990,3132
3.783,-1.462,3132
3.784,-1.827,3132
3.785,-2.047,3082
3.786,-2.107,3082
3.787,-1.982,3082
3.788,-1.698,3082
3.789,-1.292,3082
3.790,-0.812,3082
3.791,-0.302,3082
3.792,0.205,3082
3.793,0.688,3082
3.794,1.065,3082
3.795,1.275,3082
3.796,1.347,3129
3.797,1.212,3129
3.798,0.930,3129
3.799,0.527,3129
3.800,-0.547,3129
3.801,-1.008,3129
3.802,-1.462,3129
3.803,-1.843,3129
3.804,-2.053,3129
3.805,-2.112,3118
3.806,-1.982,3118
3.807,-1.702,3118
3.808,-1.295,3118
3.809,-0.812,3118
3.810,-0.325,3118
3.811,0.195,3118
3.812,0.667,3118
3.813,1.052,3118
3.814,1.260,3118
3.815,1.333,3112
3.816,1.198,3112
3.817,0.938,3112
3.818,0.540,3112
3.819,0.068,3112
3.820,-1.030,3112
3.821,-1.423,3112
3.822,-1.808,3112
3.823,-2.018,3112
3.824,-2.092,3084
3.825,-1.972,3084
3.826,-1.698,3084
3.827,-1.295,3084
3.828,-0.818,3084
3.829,-0.328,3084
3.830,0.188,3084
3.831,0.670,3084
3.832,1.052,3084
3.833,1.265,3084
3.834,1.337,3105
3.835,1.218,3105
3.836,0.940,3105
3.837,0.542,3105
3.838,0.077,3105
3.839,-0.417,3105
3.840,-1.445,3105
3.841,-1.808,3105
3.842,-2.013,3105
3.843,-2.065,3103
3.844,-1.962,3103
3.845,-1.698,3103
3.846,-1.308,3103
3.847,-0.820,3103
3.848,-0.338,3103
3.849,0.180,3103
3.850,0.660,3103
3.851,1.032,3103
3.852,1.255,3103
3.853,1.327,3109
3.854,1.208,3109
3.855,0.940,3109
3.856,0.547,3109
3.857,0.092,3109
3.858,-0.407,3109
3.859,-0.900,3109
3.860,-1.792,3109
3.861,-1.988,3109
3.862,-2.058,3110
3.863,-1.952,3110
3.864,-1.698,3110
3.865,-1.302,3110
3.866,-0.833,3110
3.867,-0.343,3110
3.868,0.158,3110
3.869,0.652,3110
3.870,1.035,3110
3.871,1.268,3110
3.872,1.347,3121
3.873,1.232,3121
3.874,0.975,3121
3.875,0.578,3121
3.876,0.117,3121
3.877,-0.388,3121
3.878,-0.895,3121
3.879,-1.383,3121
3.880,-2.022,3121
3.881,-2.087,3123
3.882,-1.982,3123
3.883,-1.728,3123
3.884,-1.345,3123
3.885,-0.882,3123
3.886,-0.393,3123
3.887,0.113,3123
3.888,0.593,3123
3.889,0.998,3123
3.890,1.228,3123
3.891,1.327,3131
3.892,1.218,3131
3.893,0.958,3131
3.894,0.580,3131
3.895,0.117,3131
3.896,-0.375,3131
3.897,-0.882,3131
3.898,-1.355,3131
3.899,-1.740,3131
3.900,-2.062,3114
3.901,-1.702,3114
3.902,-1.347,3114
3.903,-0.868,3114
3.904,-0.383,3114
3.905,0.120,3114
3.906,0.598,3114
3.907,1.005,3114
3.908,1.238,3114
3.909,1.337,3129
3.910,1.228,3129
3.911,0.988,3129
3.912,0.588,3129
3.913,0.117,3129
3.914,-0.378,3129
3.915,-0.887,3129
3.916,-1.367,3129
3.917,-1.762,3129
3.918,-2.002,3129
3.919,-2.083,3126
3.920,-1.643,3126
3.921,-1.327,3126
3.922,-0.830,3126
3.923,-0.372,3126
3.924,0.138,3126
3.925,0.620,3126
3.926,1.028,3126
3.927,1.268,3126
3.928,1.357,3134
3.929,1.252,3134
3.930,1.008,3134
3.931,0.613,3134
3.932,0.152,3134
3.933,-0.343,3134
3.934,-0.843,3134
3.935,-1.327,3134
3.936,-1.708,3134
3.937,-1.960,3134
3.938,-2.038,3144
3.939,-1.955,3144
3.940,-1.258,3144
3.941,-0.823,3144
3.942,-0.370,3144
3.943,0.140,3144
3.944,0.623,3144
3.945,1.025,3144
3.946,1.268,3144
3.947,1.370,3147
3.948,1.262,3147
3.949,1.018,3147
3.950,0.568,3147
3.951,0.147,3147
3.952,-0.347,3147
3.953,-0.863,3147
3.954,-1.365,3147
3.955,-1.772,3147
3.956,-2.018,3147
3.957,-2.112,3133
3.958,-2.025,3133
3.959,-1.782,3133
3.960,-0.855,3133
3.961,-0.403,3133
3.962,0.100,3133
3.963,0.583,3133
3.964,1.008,3133
3.965,1.250,3133
3.966,1.357,3130
3.967,1.260,3130
3.968,1.018,3130
3.969,0.620,3130
3.970,0.158,3130
3.971,-0.343,3130
3.972,-0.850,3130
3.973,-1.343,3130
3.974,-1.740,3130
3.975,-1.988,3130
3.976,-2.083,3124
3.977,-1.988,3124
3.978,-1.748,3124
3.979,-1.373,3124
3.980,-0.323,3124
3.981,0.113,3124
3.982,0.588,3124
3.983,0.990,3124
3.984,1.238,3124
3.985,1.337,3117
3.986,1.232,3117
3.987,0.993,3117
3.988,0.608,3117
3.989,0.147,3117
3.990,-0.350,3117
3.991,-0.855,3117
3.992,-1.353,3117
3.993,-1.770,3117
3.994,-2.018,3117
3.995,-2.112,3116
3.996,-2.038,3116
3.997,-1.805,3116
3.998,-1.413,3116
3.999,-0.932,3116
4.000,0.152,3116
4.001,0.573,3116
4.002,0.988,3116
4.003,1.248,3116
4.004,1.347,3128
4.005,1.262,3128
4.006,1.022,3128
4.007,0.637,3128
4.008,0.182,3128
4.009,-0.323,3128
4.010,-0.840,3128
4.011,-1.337,3128
4.012,-1.742,3128
4.013,-2.002,3128
4.014,-2.105,3131
4.015,-2.027,3131
4.016,-1.795,3131
4.017,-1.415,3131
4.018,-0.943,3131
4.019,-0.463,3131
4.020,0.608,3131
4.021,0.945,3131
4.022,1.218,3131
4.023,1.327,3119
4.024,1.248,3119
4.025,1.015,3119
4.026,0.632,3119
4.027,0.182,3119
4.028,-0.302,3119
4.029,-0.825,3119
4.030,-1.308,3119
4.031,-1.708,3119
4.032,-1.982,3119
4.033,-2.087,3113
4.034,-2.025,3113
4.035,-1.808,3113
4.036,-1.442,3113
4.037,-0.978,3113
4.038,-0.492,3113
4.039,0.022,3113
4.040,1.018,3113
4.041,1.208,3113
4.042,1.323,3119
4.043,1.238,3119
4.044,1.018,3119
4.045,0.650,3119
4.046,0.198,3119
4.047,-0.287,3119
4.048,-0.823,3119
4.049,-1.288,3119
4.050,-1.688,3119
4.051,-1.948,3119
4.052,-2.055,3119
4.053,-2.018,3124
4.054,-1.772,3124
4.055,-1.410,3124
4.056,-0.963,3124
4.057,-0.480,3124
4.058,0.037,3124
4.059,0.527,3124
4.060,1.228,3124
4.061,1.323,3120
4.062,1.238,3120
4.063,1.028,3120
4.064,0.662,3120
4.065,0.217,3120
4.066,-0.268,3120
4.067,-0.777,3120
4.068,-1.288,3120
4.069,-1.705,3120
4.070,-1.978,3120
4.071,-2.092,3120
4.072,-2.033,3132
4.073,-1.802,3132
4.074,-1.427,3132
4.075,-0.978,3132
4.076,-0.487,3132
4.077,0.028,3132
4.078,0.527,3132
4.079,0.932,3132
4.080,1.327,3114
4.081,1.022,3114
4.082,0.657,3114
4.083,0.207,3114
4.084,-0.282,3114
4.085,-0.802,3114
4.086,-1.300,3114
4.087,-1.718,3114
4.088,-2.002,3114
4.089,-2.118,3114
4.090,-2.062,3122
4.091,-1.845,3122
4.092,-1.482,3122
4.093,-1.022,3122
4.094,-0.537,3122
4.095,-0.022,3122
4.096,0.477,3122
4.097,0.915,3122
4.098,1.205,3122
4.099,1.337,3122
4.100,1.018,3098
4.101,0.247,3098
4.102,-0.233,3098
4.103,-0.748,3098
4.104,-1.232,3098
4.105,-1.667,3098
4.106,-1.950,3098
4.107,-2.060,3098
4.108,-2.018,3067
4.109,-1.792,3067
4.110,-1.448,3067
4.111,-0.983,3067
4.112,-0.502,3067
4.113,0.013,3067
4.114,0.502,3067
4.115,0.920,3067
4.116,1.205,3067
4.117,1.340,3067
4.118,1.300,3131
4.119,1.073,3131
4.120,0.110,3131
4.121,-0.752,3131
4.122,-1.218,3131
4.123,-1.650,3131
4.124,-1.930,3131
4.125,-2.050,3131
4.126,-2.013,3112
4.127,-1.808,3112
4.128,-1.458,3112
4.129,-1.005,3112
4.130,-0.522,3112
4.131,-0.018,3112
4.132,0.477,3112
4.133,0.907,3112
4.134,1.192,3112
4.135,1.312,3112
4.136,1.262,3115
4.137,1.038,3115
4.138,0.677,3115
4.139,0.228,3115
4.140,-0.863,3115
4.141,-1.268,3115
4.142,-1.728,3115
4.143,-1.992,3115
4.144,-2.118,3115
4.145,-2.062,3111
4.146,-1.843,3111
4.147,-1.482,3111
4.148,-1.010,3111
4.149,-0.527,3111
4.150,-0.028,3111
4.151,0.477,3111
4.152,0.910,3111
4.153,1.218,3111
4.154,1.353,3111
4.155,1.323,3114
4.156,1.077,3114
4.157,0.733,3114
4.158,0.270,3114
4.159,-0.223,3114
4.160,-1.327,3114
4.161,-1.690,3114
4.162,-1.982,3114
4.163,-2.112,3114
4.164,-2.083,3124
4.165,-1.863,3124
4.166,-1.510,3124
4.167,-1.058,3124
4.168,-0.565,3124
4.169,-0.048,3124
4.170,0.463,3124
4.171,0.912,3124
4.172,1.218,3124
4.173,1.353,3124
4.174,1.330,3130
4.175,1.103,3130
4.176,0.752,3130
4.177,0.305,3130
4.178,-0.182,3130
4.179,-0.698,3130
4.180,-1.705,3130
4.181,-1.952,3130
4.182,-2.062,3130
4.183,-2.033,3143
4.184,-1.820,3143
4.185,-1.472,3143
4.186,-1.025,3143
4.187,-0.542,3143
4.188,-0.048,3143
4.189,0.458,3143
4.190,0.890,3143
4.191,1.183,3143
4.192,1.327,3143
4.193,1.298,3126
4.194,1.067,3126
4.195,0.718,3126
4.196,0.273,3126
4.197,-0.212,3126
4.198,-0.715,3126
4.199,-1.210,3126
4.200,-1.968,3126
4.201,-2.055,3126
4.202,-2.033,3136
4.203,-1.840,3136
4.204,-1.492,3136
4.205,-1.042,3136
4.206,-0.560,3136
4.207,-0.055,3136
4.208,0.448,3136
4.209,0.892,3136
4.210,1.188,3136
4.211,1.337,3136
4.212,1.327,3147
4.213,1.103,3147
4.214,0.757,3147
4.215,0.318,3147
4.216,-0.163,3147
4.217,-0.667,3147
4.218,-1.165,3147
4.219,-1.615,3147
4.220,-2.058,3147
4.221,-2.033,3139
4.222,-1.847,3139
4.223,-1.522,3139
4.224,-1.073,3139
4.225,-0.593,3139
4.226,-0.102,3139
4.227,0.388,3139
4.228,0.828,3139
4.229,1.147,3139
4.230,1.302,3139
4.231,1.295,3126
4.232,1.073,3126
4.233,0.738,3126
4.234,0.292,3126
4.235,-0.190,3126
4.236,-0.695,3126
4.237,-1.202,3126
4.238,-1.653,3126
4.239,-1.960,3126
4.240,-2.053,3145
4.241,-1.525,3145
4.242,-1.087,3145
4.243,-0.588,3145
4.244,-0.087,3145
4.245,0.438,3145
4.246,0.875,3145
4.247,1.188,3145
4.248,1.353,3145
4.249,1.337,3117
4.250,1.117,3117
4.251,0.787,3117
4.252,0.350,3117
4.253,-0.133,3117
4.254,-0.652,3117
4.255,-1.147,3117
4.256,-1.600,3117
4.257,-1.897,3117
4.258,-2.035,3117
4.259,-2.027,3123
4.260,-1.452,3123
4.261,-0.988,3123
4.262,-0.578,3123
4.263,-0.072,3123
4.264,0.427,3123
4.265,0.868,3123
4.266,1.183,3123
4.267,1.343,3123
4.268,1.330,3126
4.269,1.103,3126
4.270,0.772,3126
4.271,0.318,3126
4.272,-0.168,3126
4.273,-0.682,3126
4.274,-1.177,3126
4.275,-1.623,3126
4.276,-1.938,3126
4.277,-2.060,3126
4.278,-2.042,3129
4.279,-1.845,3129
4.280,-0.983,3129
4.281,-0.575,3129
4.282,-0.068,3129
4.283,0.430,3129
4.284,0.887,3129
4.285,1.192,3129
4.286,1.353,3129
4.287,1.350,3114
4.288,1.140,3114
4.289,0.797,3114
4.290,0.372,3114
4.291,-0.117,3114
4.292,-0.647,3114
4.293,-1.153,3114
4.294,-1.613,3114
4.295,-1.933,3114
4.296,-2.090,3114
4.297,-2.083,3114
4.298,-1.893,3120
4.299,-1.562,3120
4.300,-0.547,3120
4.301,-0.102,3120
4.302,0.393,3120
4.303,0.895,3120
4.304,1.190,3120
4.305,1.333,3120
4.306,1.327,3120
4.307,1.143,3126
4.308,0.792,3126
4.309,0.380,3126
4.310,-0.098,3126
4.311,-0.593,3126
4.312,-1.103,3126
4.313,-1.552,3126
4.314,-1.885,3126
4.315,-2.042,3126
4.316,-2.047,3126
4.317,-1.873,3113
4.318,-1.548,3113
4.319,-1.107,3113
4.320,-0.048,3113
4.321,0.378,3113
4.322,0.835,3113
4.323,1.153,3113
4.324,1.327,3113
4.325,1.323,3113
4.326,1.133,3127
4.327,0.792,3127
4.328,0.372,3127
4.329,-0.110,3127
4.330,-0.615,3127
4.331,-1.127,3127
4.332,-1.583,3127
4.333,-1.907,3127
4.334,-2.065,3127
4.335,-2.083,3127
4.336,-1.905,3109
4.337,-1.562,3109
4.338,-1.147,3109
4.339,-0.662,3109
4.340,0.427,3109
4.341,0.812,3109
4.342,1.228,3109
4.343,1.308,3109
4.344,1.117,3112
4.345,0.770,3112
4.346,0.367,3112
4.347,-0.113,3112
4.348,-0.618,3112
4.349,-1.123,3112
4.350,-1.570,3112
4.351,-1.887,3112
4.352,-2.050,3112
4.353,-2.047,3112
4.354,-1.875,3100
4.355,-1.548,3100
4.356,-1.125,3100
4.357,-0.650,3100
4.358,-0.147,3100
4.359,0.347,3100
4.360,1.167,3100
4.361,1.305,3100
4.362,1.312,3100
4.363,1.137,3116
4.364,0.797,3116
4.365,0.383,3116
4.366,-0.098,3116
4.367,-0.608,3116
4.368,-1.103,3116
4.369,-1.562,3116
4.370,-1.893,3116
4.371,-2.047,3116
4.372,-2.058,3116
4.373,-1.887,3112
4.374,-1.570,3112
4.375,-1.140,3112
4.376,-0.657,3112
4.377,-0.165,3112
4.378,0.347,3112
4.379,0.815,3112
4.380,1.343,3112
4.381,1.333,3112
4.382,1.147,3123
4.383,0.823,3123
4.384,0.393,3123
4.385,-0.085,3123
4.386,-0.583,3123
4.387,-1.085,3123
4.388,-1.548,3123
4.389,-1.887,3123
4.390,-2.055,3123
4.391,-2.062,3123
4.392,-1.895,3132
4.393,-1.575,3132
4.394,-1.150,3132
4.395,-0.667,3132
4.396,-0.170,3132
4.397,0.340,3132
4.398,0.792,3132
4.399,1.133,3132
4.400,1.317,3132
4.401,1.167,3122
4.402,0.843,3122
4.403,0.420,3122
4.404,-0.062,3122
4.405,-0.562,3122
4.406,-1.062,3122
4.407,-1.535,3122
4.408,-1.873,3122
4.409,-2.060,3122
4.410,-2.087,3122
4.411,-1.930,3113
4.412,-1.623,3113
4.413,-1.188,3113
4.414,-0.723,3113
4.415,-0.223,3113
4.416,0.278,3113
4.417,0.748,3113
4.418,1.097,3113
4.419,1.300,3113
4.420,1.140,3126
4.421,0.410,3126
4.422,-0.050,3126
4.423,-0.535,3126
4.424,-1.048,3126
4.425,-1.508,3126
4.426,-1.850,3126
4.427,-2.027,3126
4.428,-2.058,3126
4.429,-1.905,3132
4.430,-1.605,3132
4.431,-1.180,3132
4.432,-0.652,3132
4.433,-0.200,3132
4.434,0.297,3132
4.435,0.752,3132
4.436,1.107,3132
4.437,1.300,3132
4.438,1.327,3132
4.439,1.155,3119
4.440,0.347,3119
4.441,-0.062,3119
4.442,-0.560,3119
4.443,-1.060,3119
4.444,-1.522,3119
4.445,-1.860,3119
4.446,-2.035,3119
4.447,-2.055,3119
4.448,-1.897,3136
4.449,-1.583,3136
4.450,-1.167,3136
4.451,-0.690,3136
4.452,-0.200,3136
4.453,0.302,3136
4.454,0.767,3136
4.455,1.110,3136
4.456,1.308,3136
4.457,1.333,3136
4.458,1.180,3151
4.459,0.858,3151
4.460,-0.128,3151
4.461,-0.535,3151
4.462,-1.045,3151
4.463,-1.522,3151
4.464,-1.870,3151
4.465,-2.053,3151
4.466,-2.092,3151
4.467,-1.942,3146
4.468,-1.633,3146
4.469,-1.208,3146
4.470,-0.728,3146
4.471,-0.228,3146
4.472,0.280,3146
4.473,0.752,3146
4.474,1.113,3146
4.475,1.333,3146
4.476,1.370,3146
4.477,1.222,3125
4.478,0.905,3125
4.479,0.502,3125
4.480,-0.608,3125
4.481,-1.067,3125
4.482,-1.500,3125
4.483,-1.863,3125
4.484,-2.053,3125
4.485,-2.095,3125
4.486,-1.948,3135
4.487,-1.650,3135
4.488,-1.228,3135
4.489,-0.762,3135
4.490,-0.268,3135
4.491,0.233,3135
4.492,0.700,3135
4.493,1.065,3135
4.494,1.262,3135
4.495,1.323,3135
4.496,1.188,3127
4.497,0.877,3127
4.498,0.470,3127
4.499,0.018,3127
4.500,-1.073,3127
4.501,-1.465,3127
4.502,-1.815,3127
4.503,-2.002,3127
4.504,-2.042,3127
4.505,-1.897,3123
4.506,-1.613,3123
4.507,-1.202,3123
4.508,-0.733,3123
4.509,-0.250,3123
4.510,0.247,3123
4.511,0.705,3123
4.512,1.062,3123
4.513,1.272,3123
4.514,1.337,3123
4.515,1.192,3127
4.516,0.892,3127
4.517,0.480,3127
4.518,0.025,3127
4.519,-0.482,3127
4.520,-1.530,3127
4.521,-1.827,3127
4.522,-2.027,3127
4.523,-2.062,3127
4.524,-1.933,3123
4.525,-1.643,3123
4.526,-1.228,3123
4.527,-0.752,3123
4.528,-0.258,3123
4.529,0.253,3123
4.530,0.748,3123
4.531,1.095,3123
4.532,1.310,3123
4.533,1.357,3123
4.534,1.222,3116
4.535,0.912,3116
4.536,0.502,3116
4.537,0.050,3116
4.538,-0.453,3116
4.539,-0.973,3116
4.540,-1.855,3116
4.541,-2.015,3116
4.542,-2.053,3116
4.543,-1.933,3128
4.544,-1.643,3128
4.545,-1.232,3128
4.546,-0.757,3128
4.547,-0.268,3128
4.548,0.237,3128
4.549,0.710,3128
4.550,1.073,3128
4.551,1.272,3128
4.552,1.340,3128
4.553,1.188,3128
4.554,0.902,3113
4.555,0.477,3113
4.556,0.022,3113
4.557,-0.482,3113
4.558,-0.983,3113
4.559,-1.462,3113
4.560,-2.047,3113
4.561,-2.083,3113
4.562,-1.948,3113
4.563,-1.667,3129
4.564,-1.232,3129
4.565,-0.765,3129
4.566,-0.268,3129
4.567,0.247,3129
4.568,0.720,3129
4.569,1.103,3129
4.570,1.327,3129
4.571,1.377,3129
4.572,1.232,3129
4.573,0.948,3100
4.574,0.535,3100
4.575,0.065,3100
4.576,-0.448,3100
4.577,-0.968,3100
4.578,-1.452,3100
4.579,-1.817,3100
4.580,-2.087,3100
4.581,-1.978,3100
4.582,-1.702,3134
4.583,-1.302,3134
4.584,-0.833,3134
4.585,-0.347,3134
4.586,0.172,3134
4.587,0.637,3134
4.588,1.028,3134
4.589,1.258,3134
4.590,1.333,3134
4.591,1.218,3134
4.592,0.943,3111
4.593,0.535,3111
4.594,0.080,3111
4.595,-0.415,3111
4.596,-0.922,3111
4.597,-1.393,3111
4.598,-1.785,3111
4.599,-1.992,3111
4.600,-1.923,3126
4.601,-1.292,3126
4.602,-0.825,3126
4.603,-0.340,3126
4.604,0.180,3126
4.605,0.652,3126
4.606,1.030,3126
4.607,1.252,3126
4.608,1.330,3126
4.609,1.208,3126
4.610,0.927,3117
4.611,0.512,3117
4.612,0.048,3117
4.613,-0.453,3117
4.614,-0.965,3117
4.615,-1.450,3117
4.616,-1.823,3117
4.617,-2.030,3117
4.618,-2.100,3117
4.619,-1.982,3117
4.620,-1.232,3125
4.621,-0.340,3125
4.622,0.170,3125
4.623,0.652,3125
4.624,1.032,3125
4.625,1.272,3125
4.626,1.347,3125
4.627,1.232,3125
4.628,0.958,3123
4.629,0.565,3123
4.630,0.107,3123
4.631,-0.412,3123
4.632,-0.900,3123
4.633,-1.383,3123
4.634,-1.778,3123
4.635,-1.992,3123
4.636,-2.058,3123
4.637,-1.962,3123
4.638,-1.695,3115
4.639,-1.305,3115
4.640,-0.268,3115
4.641,0.212,3115
4.642,0.652,3115
4.643,1.028,3115
4.644,1.238,3115
4.645,1.312,3115
4.646,1.208,3115
4.647,0.938,3111
4.648,0.532,3111
4.649,0.065,3111
4.650,-0.427,3111
4.651,-0.938,3111
4.652,-1.417,3111
4.653,-1.808,3111
4.654,-2.022,3111
4.655,-2.100,3111
4.656,-1.988,3111
4.657,-1.715,3130
4.658,-1.312,3130
4.659,-0.843,3130
4.660,0.253,3130
4.661,0.675,3130
4.662,1.048,3130
4.663,1.270,3130
4.664,1.357,3130
4.665,1.248,3130
4.666,0.978,3129
4.667,0.557,3129
4.668,0.095,3129
4.669,-0.405,3129
4.670,-0.912,3129
4.671,-1.393,3129
4.672,-1.788,3129
4.673,-2.015,3129
4.674,-2.087,3129
4.675,-1.978,3129
4.676,-1.702,3128
4.677,-1.327,3128
4.678,-0.848,3128
4.679,-0.352,3128
4.680,0.718,3128
4.681,1.032,3128
4.682,1.270,3128
4.683,1.357,3128
4.684,1.238,3128
4.685,0.978,3139
4.686,0.578,3139
4.687,0.113,3139
4.688,-0.378,3139
4.689,-0.892,3139
4.690,-1.380,3139
4.691,-1.782,3139
4.692,-2.013,3139
4.693,-2.095,3139
4.694,-1.992,3139
4.695,-1.732,3139
4.696,-1.333,3139
4.697,-0.868,3139
4.698,-0.375,3139
4.699,0.135,3139
4.700,1.058,3139
4.701,1.337,3139
4.702,1.228,3139
4.703,0.975,3114
4.704,0.573,3114
4.705,0.107,3114
4.706,-0.378,3114
4.707,-0.873,3114
4.708,-1.357,3114
4.709,-1.740,3114
4.710,-1.992,3114
4.711,-2.062,3114
4.712,-1.982,3114
4.713,-1.718,3140
4.714,-1.335,3140
4.715,-0.863,3140
4.716,-0.378,3140
4.717,0.133,3140
4.718,0.618,3140
4.719,1.015,3140
4.720,1.343,3140
4.721,1.238,3140
4.722,0.985,3113
4.723,0.593,3113
4.724,0.142,3113
4.725,-0.352,3113
4.726,-0.858,3113
4.727,-1.353,3113
4.728,-1.762,3113
4.729,-1.992,3113
4.730,-2.087,3113
4.731,-2.007,3113
4.732,-1.762,3127
4.733,-1.373,3127
4.734,-0.902,3127
4.735,-0.417,3127
4.736,0.095,3127
4.737,0.588,3127
4.738,0.993,3127
4.739,1.238,3127
4.740,1.210,3127
4.741,0.955,3143
4.742,0.580,3143
4.743,0.128,3143
4.744,-0.362,3143
4.745,-0.873,3143
4.746,-1.355,3143
4.747,-1.745,3143
4.748,-1.992,3143
4.749,-2.083,3143
4.750,-1.980,3143
4.751,-1.730,3135
4.752,-1.347,3135
4.753,-0.887,3135
4.754,-0.407,3135
4.755,0.107,3135
4.756,0.588,3135
4.757,0.998,3135
4.758,1.238,3135
4.759,1.347,3135
4.760,0.950,3115
4.761,0.155,3115
4.762,-0.325,3115
4.763,-0.830,3115
4.764,-1.320,3115
4.765,-1.708,3115
4.766,-1.968,3115
4.767,-2.053,3115
4.768,-1.972,3115
4.769,-1.728,3138
4.770,-1.347,3138
4.771,-0.887,3138
4.772,-0.398,3138
4.773,0.113,3138
4.774,0.593,3138
4.775,1.005,3138
4.776,1.252,3138
4.777,1.353,3138
4.778,1.265,3138
4.779,1.022,3108
4.780,0.105,3108
4.781,-0.297,3108
4.782,-0.823,3108
4.783,-1.308,3108
4.784,-1.722,3108
4.785,-1.980,3108
4.786,-2.067,3108
4.787,-2.007,3108
4.788,-1.765,3120
4.789,-1.387,3120
4.790,-0.925,3120
4.791,-0.432,3120
4.792,0.077,3120
4.793,0.568,3120
4.794,0.983,3120
4.795,1.230,3120
4.796,1.340,3120
4.797,1.258,3120
4.798,1.022,3120
4.799,0.632,3081
4.800,-0.412,3081
4.801,-0.902,3081
4.802,-1.325,3081
4.803,-1.708,3081
4.804,-1.968,3081
4.805,-2.062,3081
4.806,-2.002,3081
4.807,-1.770,3081
4.808,-1.393,3121
4.809,-0.912,3121
4.810,-0.432,3121
4.811,0.068,3121
4.812,0.550,3121
4.813,0.958,3121
4.814,1.228,3121
4.815,1.343,3121
4.816,1.268,3121
4.817,1.028,3121
4.818,0.657,3119
4.819,0.158,3119
4.820,-0.887,3119
4.821,-1.308,3119
4.822,-1.722,3119
4.823,-1.978,3119
4.824,-2.083,3119
4.825,-2.007,3119
4.826,-1.775,3119
4.827,-1.393,3122
4.828,-0.907,3122
4.829,-0.427,3122
4.830,0.092,3122
4.831,0.575,3122
4.832,0.985,3122
4.833,1.248,3122
4.834,1.350,3122
4.835,1.272,3122
4.836,1.032,3122
4.837,0.657,3121
4.838,0.198,3121
4.839,-0.290,3121
4.840,-1.367,3121
4.841,-1.708,3121
4.842,-1.980,3121
4.843,-2.092,3121
4.844,-2.022,3121
4.845,-1.792,3121
4.846,-1.410,3079
4.847,-0.963,3079
4.848,-0.487,3079
4.849,0.043,3079
4.850,0.527,3079
4.851,0.943,3079
4.852,1.218,3079
4.853,1.340,3079
4.854,1.268,3079
4.855,1.040,3079
4.856,0.667,3095
4.857,0.205,3095
4.858,-0.287,3095
4.859,-0.812,3095
4.860,-1.775,3095
4.861,-1.982,3095
4.862,-2.098,3095
4.863,-2.033,3095
4.864,-1.815,3095
4.865,-1.452,3102
4.866,-0.985,3102
4.867,-0.510,3102
4.868,-0.013,3102
4.869,0.475,3102
4.870,0.902,3102
4.871,1.173,3102
4.872,1.302,3102
4.873,1.238,3102
4.874,1.022,3102
4.875,0.662,3112
4.876,0.212,3112
4.877,-0.273,3112
4.878,-0.780,3112
4.879,-1.288,3112
4.880,-1.982,3112
4.881,-2.127,3112
4.882,-1.988,3112
4.883,-1.792,3112
4.884,-1.448,3079
4.885,-0.978,3079
4.886,-0.497,3079
4.887,-0.007,3079
4.888,0.500,3079
4.889,0.920,3079
4.890,1.210,3079
4.891,1.343,3079
4.892,1.272,3079
4.893,1.062,3079
4.894,0.703,3126
4.895,0.247,3126
4.896,-0.247,3126
4.897,-0.752,3126
4.898,-1.248,3126
4.899,-1.690,3126
4.900,-2.065,3126
4.901,-2.020,3126
4.902,-1.788,3126
4.903,-1.423,3111
4.904,-0.948,3111
4.905,-0.468,3111
4.906,0.037,3111
4.907,0.522,3111
4.908,0.943,3111
4.909,1.220,3111
4.910,1.340,3111
4.911,1.268,3111
4.912,1.052,3111
4.913,0.672,3113
4.914,0.212,3113
4.915,-0.268,3113
4.916,-0.843,3113
4.917,-1.308,3113
4.918,-1.700,3113
4.919,-1.978,3113
4.920,-2.010,3113
4.921,-1.823,3113
4.922,-1.452,3124
4.923,-1.010,3124
4.924,-0.540,3124
4.925,-0.043,3124
4.926,0.453,3124
4.927,0.887,3124
4.928,1.173,3124
4.929,1.308,3124
4.930,1.258,3124
4.931,1.048,3124
4.932,0.693,3137
4.933,0.225,3137
4.934,-0.233,3137
4.935,-0.743,3137
4.936,-1.232,3137
4.937,-1.673,3137
4.938,-1.962,3137
4.939,-2.087,3137
4.940,-1.788,3137
4.941,-1.492,3124
4.942,-1.025,3124
4.943,-0.542,3124
4.944,-0.048,3124
4.945,0.453,3124
4.946,0.892,3124
4.947,1.188,3124
4.948,1.327,3124
4.949,1.298,3124
4.950,1.093,3124
4.951,0.740,3111
4.952,0.292,3111
4.953,-0.180,3111
4.954,-0.688,3111
4.955,-1.177,3111
4.956,-1.627,3111
4.957,-1.903,3111
4.958,-2.042,3111
4.959,-2.013,3111
4.960,-1.407,3137
4.961,-0.542,3137
4.962,-0.043,3137
4.963,0.455,3137
4.964,0.890,3137
4.965,1.180,3137
4.966,1.327,3137
4.967,1.298,3137
4.968,1.067,3137
4.969,0.715,3122
4.970,0.265,3122
4.971,-0.220,3122
4.972,-0.738,3122
4.973,-1.228,3122
4.974,-1.667,3122
4.975,-1.962,3122
4.976,-2.092,3122
4.977,-2.047,3122
4.978,-1.845,3122
4.979,-1.482,3134
4.980,-0.448,3134
4.981,-0.025,3134
4.982,0.477,3134
4.983,0.915,3134
4.984,1.215,3134
4.985,1.353,3134
4.986,1.333,3134
4.987,1.107,3134
4.988,0.755,3106
4.989,0.290,3106
4.990,-0.193,3106
4.991,-0.708,3106
4.992,-1.202,3106
4.993,-1.630,3106
4.994,-1.933,3106
4.995,-2.062,3106
4.996,-2.033,3106
4.997,-1.827,3106
4.998,-1.482,3141
4.999,-1.028,3141
5.000,0.043,3141
5.001,0.435,3141
5.002,0.868,3141
5.003,1.173,3141
5.004,1.323,3141
5.005,1.295,3141
5.006,1.087,3141
5.007,0.733,3123
5.008,0.273,3123
5.009,-0.203,3123
5.010,-0.713,3123
5.011,-1.208,3123
5.012,-1.640,3123
5.013,-1.942,3123
5.014,-2.083,3123
5.015,-2.033,3123
5.016,-1.833,3123
5.017,-1.492,3139
5.018,-1.048,3139
5.019,-0.568,3139
5.020,0.507,3139
5.021,0.892,3139
5.022,1.177,3139
5.023,1.335,3139
5.024,1.310,3139
5.025,1.107,3139
5.026,0.755,3126
5.027,0.297,3126
5.028,-0.188,3126
5.029,-0.700,3126
5.030,-1.200,3126
5.031,-1.657,3126
5.032,-1.968,3126
5.033,-2.110,3126
5.034,-2.087,3126
5.035,-1.867,3126
5.036,-1.528,3124
5.037,-1.067,3124
5.038,-0.580,3124
5.039,-0.085,3124
5.040,0.907,3124
5.041,1.150,3124
5.042,1.302,3124
5.043,1.270,3124
5.044,1.075,3124
5.045,0.740,3122
5.046,0.278,3122
5.047,-0.188,3122
5.048,-0.698,3122
5.049,-1.200,3122
5.050,-1.647,3122
5.051,-1.948,3122
5.052,-2.092,3122
5.053,-2.058,3122
5.054,-1.867,3122
5.055,-1.522,3122
5.056,-1.085,3110
5.057,-0.588,3110
5.058,-0.090,3110
5.059,0.415,3110
5.060,1.210,3110
5.061,1.335,3110
5.062,1.327,3110
5.063,1.135,3110
5.064,0.708,3124
5.065,-0.138,3124
5.066,-0.642,3124
5.067,-1.137,3124
5.068,-1.577,3124
5.069,-1.903,3124
5.070,-2.047,3124
5.071,-2.040,3124
5.072,-1.843,3124
5.073,-1.510,3124
5.074,-1.067,3116
5.075,-0.580,3116
5.076,-0.092,3116
5.077,0.415,3116
5.078,0.860,3116
5.079,1.173,3116
5.080,1.312,3116
5.081,1.145,3116
5.082,0.812,3116
5.083,0.372,3111
5.084,-0.125,3111
5.085,-0.613,3111
5.086,-1.107,3111
5.087,-1.562,3111
5.088,-1.875,3111
5.089,-2.030,3111
5.090,-2.027,3111
5.091,-1.843,3111
5.092,-1.520,3111
5.093,-1.075,3100
5.094,-0.590,3100
5.095,-0.092,3100
5.096,0.412,3100
5.097,0.863,3100
5.098,1.183,3100
5.099,1.357,3100
5.100,1.087,3100
5.101,0.823,3100
5.102,0.393,3105
5.103,-0.095,3105
5.104,-0.603,3105
5.105,-1.100,3105
5.106,-1.552,3105
5.107,-1.873,3105
5.108,-2.030,3105
5.109,-2.027,3105
5.110,-1.860,3105
5.111,-1.540,3105
5.112,-1.100,3103
5.113,-0.613,3103
5.114,-0.122,3103
5.115,0.395,3103
5.116,0.830,3103
5.117,1.153,3103
5.118,1.323,3103
5.119,1.333,3103
5.120,0.743,3096
5.121,-0.113,3096
5.122,-0.615,3096
5.123,-1.127,3096
5.124,-1.577,3096
5.125,-1.905,3096
5.126,-2.058,3096
5.127,-2.060,3096
5.128,-1.885,3096
5.129,-1.552,3096
5.130,-1.123,3121
5.131,-0.618,3121
5.132,-0.130,3121
5.133,0.380,3121
5.134,0.833,3121
5.135,1.167,3121
5.136,1.327,3121
5.137,1.327,3121
5.138,1.137,3121
5.139,0.792,3121
5.140,-0.205,3122
5.141,-1.125,3122
5.142,-1.567,3122
5.143,-1.885,3122
5.144,-2.045,3122
5.145,-2.042,3122
5.146,-1.863,3122
5.147,-1.532,3122
5.148,-1.093,3122
5.149,-0.608,3122
5.150,-0.113,3122
5.151,0.385,3122
5.152,0.845,3122
5.153,1.173,3122
5.154,1.347,3122
5.155,1.347,3122
5.156,1.173,3122
5.157,0.848,3122
5.158,0.400,3155
5.159,-0.087,3155
5.160,-1.163,3155
5.161,-1.548,3155
5.162,-1.887,3155
5.163,-2.060,3155
5.164,-2.065,3155
5.165,-1.903,3155
5.166,-1.600,3155
5.167,-1.167,3141
5.168,-0.672,3141
5.169,-0.182,3141
5.170,0.333,3141
5.171,0.787,3141
5.172,1.137,3141
5.173,1.323,3141
5.174,1.340,3141
5.175,1.167,3141
5.176,0.853,3141
5.177,0.420,3131
5.178,-0.072,3131
5.179,-0.573,3131
5.180,-1.613,3131
5.181,-1.870,3131
5.182,-2.033,3131
5.183,-2.053,3131
5.184,-1.887,3131
5.185,-1.565,3131
5.186,-1.133,3142
5.187,-0.647,3142
5.188,-0.145,3142
5.189,0.347,3142
5.190,0.795,3142
5.191,1.143,3142
5.192,1.333,3142
5.193,1.347,3142
5.194,1.177,3142
5.195,0.863,3142
5.196,0.427,3130
5.197,-0.060,3130
5.198,-0.552,3130
5.199,-1.058,3130
5.200,-1.903,3130
5.201,-2.042,3130
5.202,-2.053,3130
5.203,-1.897,3130
5.204,-1.587,3130
5.205,-1.143,3140
5.206,-0.672,3140
5.207,-0.188,3140
5.208,0.333,3140
5.209,0.787,3140
5.210,1.137,3140
5.211,1.333,3140
5.212,1.343,3140
5.213,1.173,3140
5.214,0.863,3140
5.215,0.438,3126
5.216,-0.055,3126
5.217,-0.542,3126
5.218,-1.052,3126
5.219,-1.522,3126
5.220,-2.083,3126
5.221,-2.087,3126
5.222,-1.927,3126
5.223,-1.627,3126
5.224,-1.183,3134
5.225,-0.703,3134
5.226,-0.212,3134
5.227,0.300,3134
5.228,0.770,3134
5.229,1.117,3134
5.230,1.327,3134
5.231,1.350,3134
5.232,1.188,3134
5.233,0.890,3134
5.234,0.470,3123
5.235,-0.040,3123
5.236,-0.527,3123
5.237,-1.048,3123
5.238,-1.522,3123
5.239,-1.870,3123
5.240,-2.083,3123
5.241,-1.942,3123
5.242,-1.643,3123
5.243,-1.210,3118
5.244,-0.725,3118
5.245,-0.228,3118
5.246,0.287,3118
5.247,0.752,3118
5.248,1.117,3118
5.249,1.327,3118
5.250,1.355,3118
5.251,1.198,3118
5.252,0.897,3118
5.253,0.472,3131
5.254,-0.013,3131
5.255,-0.507,3131
5.256,-1.015,3131
5.257,-1.472,3131
5.258,-1.833,3131
5.259,-2.013,3131
5.260,-1.853,3131
5.261,-1.140,3118
5.262,-0.703,3118
5.263,-0.215,3118
5.264,0.278,3118
5.265,0.743,3118
5.266,1.095,3118
5.267,1.302,3118
5.268,1.347,3118
5.269,1.188,3118
5.270,0.897,3118
5.271,0.477,3133
5.272,-0.007,3133
5.273,-0.500,3133
5.274,-1.012,3133
5.275,-1.488,3133
5.276,-1.845,3133
5.277,-2.042,3133
5.278,-2.083,3133
5.279,-1.942,3133
5.280,-1.133,3117
5.281,-0.220,3117
5.282,0.290,3117
5.283,0.757,3117
5.284,1.110,3117
5.285,1.315,3117
5.286,1.347,3117
5.287,1.192,3117
5.288,0.895,3117
5.289,0.465,3119
5.290,-0.028,3119
5.291,-0.530,3119
5.292,-1.030,3119
5.293,-1.508,3119
5.294,-1.855,3119
5.295,-2.045,3119
5.296,-2.058,3119
5.297,-1.933,3119
5.298,-1.625,3119
5.299,-1.188,3119
5.300,-0.135,3117
5.301,0.757,3117
5.302,1.107,3117
5.303,1.317,3117
5.304,1.353,3117
5.305,1.212,3117
5.306,0.912,3117
5.307,0.383,3113
5.308,-0.487,3113
5.309,-0.988,3113
5.310,-1.462,3113
5.311,-1.823,3113
5.312,-2.018,3113
5.313,-2.062,3113
5.314,-1.940,3113
5.315,-1.645,3113
5.316,-1.220,3113
5.317,-0.752,3115
5.318,-0.263,3115
5.319,0.247,3115
5.320,1.113,3115
5.321,1.272,3115
5.322,1.330,3115
5.323,1.188,3115
5.324,0.905,3115
5.325,0.502,3115
5.326,0.022,3115
5.327,-0.492,3115
5.328,-0.988,3115
5.329,-1.458,3115
5.330,-1.823,3115
5.331,-2.033,3115
5.332,-2.098,3115
5.333,-1.970,3115
5.334,-1.683,3115
5.335,-1.258,3115
5.336,-0.782,3108
5.337,-0.285,3108
5.338,0.217,3108
5.339,0.688,3108
5.340,1.272,3108
5.341,1.323,3108
5.342,1.192,3108
5.343,0.912,3108
5.344,0.507,3108
5.345,0.037,3119
5.346,-0.485,3119
5.347,-0.983,3119
5.348,-1.460,3119
5.349,-1.840,3119
5.350,-2.033,3119
5.351,-2.095,3119
5.352,-1.965,3119
5.353,-1.683,3119
5.354,-1.258,3119
5.355,-0.805,3073
5.356,-0.287,3073
5.357,0.220,3073
5.358,0.698,3073
5.359,1.062,3073
5.360,1.347,3073
5.361,1.185,3073
5.362,0.940,3073
5.363,0.500,3073
5.364,0.062,3113
5.365,-0.450,3113
5.366,-0.943,3113
5.367,-1.440,3113
5.368,-1.817,3113
5.369,-2.022,3113
5.370,-2.098,3113
5.371,-1.975,3113
5.372,-1.698,3113
5.373,-1.292,3113
5.374,-0.815,3107
5.375,-0.323,3107
5.376,0.193,3107
5.377,0.672,3107
5.378,1.050,3107
5.379,1.262,3107
5.380,1.190,3107
5.381,0.945,3107
5.382,0.547,3107
5.383,0.077,3072
5.384,-0.430,3072
5.385,-0.927,3072
5.386,-1.410,3072
5.387,-1.788,3072
5.388,-2.007,3072
5.389,-2.083,3072
5.390,-1.962,3072
5.391,-1.688,3072
5.392,-1.292,3072
5.393,-0.818,3105
5.394,-0.323,3105
5.395,0.190,3105
5.396,0.710,3105
5.397,1.067,3105
5.398,1.260,3105
5.399,1.335,3105
5.400,0.868,3105
5.401,0.497,3105
5.402,0.013,3108
5.403,-0.993,3108
5.404,-1.448,3108
5.405,-1.812,3108
5.406,-2.022,3108
5.407,-2.087,3108
5.408,-1.972,3108
5.409,-1.698,3108
5.410,-1.298,3108
5.411,-0.823,3112
5.412,-0.328,3112
5.413,0.185,3112
5.414,0.667,3112
5.415,1.058,3112
5.416,1.292,3112
5.417,1.355,3112
5.418,1.230,3112
5.419,0.958,3112
5.420,0.020,3128
5.421,-0.917,3128
5.422,-1.393,3128
5.423,-1.780,3128
5.424,-2.010,3128
5.425,-2.083,3128
5.426,-1.972,3128
5.427,-1.700,3128
5.428,-1.323,3128
5.429,-0.848,3133
5.430,-0.347,3133
5.431,0.150,3133
5.432,0.637,3133
5.433,1.028,3133
5.434,1.258,3133
5.435,1.347,3133
5.436,1.238,3133
5.437,0.983,3133
5.438,0.573,3133
5.439,0.102,3135
5.440,-1.012,3135
5.441,-1.397,3135
5.442,-1.792,3135
5.443,-2.018,3135
5.444,-2.095,3135
5.445,-1.988,3135
5.446,-1.722,3135
5.447,-1.333,3135
5.448,-0.858,3151
5.449,-0.352,3151
5.450,0.152,3151
5.451,0.650,3151
5.452,1.038,3151
5.453,1.265,3151
5.454,1.347,3151
5.455,1.230,3151
5.456,0.953,3151
5.457,0.573,3151
5.458,0.110,3133
5.459,-0.388,3133
5.460,-1.460,3133
5.461,-1.772,3133
5.462,-1.992,3133
5.463,-2.083,3133
5.464,-1.972,3133
5.465,-1.708,3133
5.466,-1.323,3133
5.467,-0.850,3129
5.468,-0.352,3129
5.469,0.150,3129
5.470,0.632,3129
5.471,1.032,3129
5.472,1.272,3129
5.473,1.355,3129
5.474,1.252,3129
5.475,0.993,3129
5.476,0.588,3129
5.477,0.117,3125
5.478,-0.407,3125
5.479,-0.912,3125
5.480,-1.867,3125
5.481,-2.047,3125
5.482,-2.123,3125
5.483,-2.020,3125
5.484,-1.770,3125
5.485,-1.373,3125
5.486,-0.905,3112
5.487,-0.412,3112
5.488,0.092,3112
5.489,0.573,3112
5.490,0.975,3112
5.491,1.215,3112
5.492,1.310,3112
5.493,1.208,3112
5.494,0.948,3112
5.495,0.568,3112
5.496,0.102,3128
5.497,-0.412,3128
5.498,-0.922,3128
5.499,-1.405,3128
5.500,-2.053,3128
5.501,-2.107,3128
5.502,-2.013,3128
5.503,-1.748,3128
5.504,-1.347,3128
5.505,-0.873,3153
5.506,-0.380,3153
5.507,0.135,3153
5.508,0.623,3153
5.509,1.028,3153
5.510,1.300,3153
5.511,1.377,3153
5.512,1.300,3153
5.513,1.032,3153
5.514,0.652,3153
5.515,0.180,3124
5.516,-0.333,3124
5.517,-0.848,3124
5.518,-1.337,3124
5.519,-1.740,3124
5.520,-2.085,3124
5.521,-1.990,3124
5.522,-1.742,3124
5.523,-1.363,3124
5.524,-0.887,3097
5.525,-0.388,3097
5.526,0.113,3097
5.527,0.593,3097
5.528,0.998,3097
5.529,1.248,3097
5.530,1.343,3097
5.531,1.238,3097
5.532,0.990,3097
5.533,0.610,3097
5.534,0.142,3125
5.535,-0.372,3125
5.536,-0.882,3125
5.537,-1.367,3125
5.538,-1.765,3125
5.539,-2.002,3125
5.540,-1.972,3125
5.541,-1.742,3125
5.542,-1.365,3125
5.543,-0.902,3108
5.544,-0.393,3108
5.545,0.102,3108
5.546,0.588,3108
5.547,0.993,3108
5.548,1.238,3108
5.549,1.347,3108
5.550,1.258,3108
5.551,1.015,3108
5.552,0.627,3108
5.553,0.182,3108
5.554,-0.307,3124
5.555,-0.828,3124
5.556,-1.312,3124
5.557,-1.710,3124
5.558,-1.968,3124
5.559,-2.053,3124
5.560,-1.688,3124
5.561,-1.347,3124
5.562,-0.907,3124
5.563,-0.430,3111
5.564,0.092,3111
5.565,0.568,3111
5.566,0.960,3111
5.567,1.222,3111
5.568,1.337,3111
5.569,1.248,3111
5.570,1.018,3111
5.571,0.632,3111
5.572,0.188,3111
5.573,-0.302,3115
5.574,-0.823,3115
5.575,-1.323,3115
5.576,-1.710,3115
5.577,-1.975,3115
5.578,-2.083,3115
5.579,-2.007,3115
5.580,-1.333,3115
5.581,-0.882,3069
5.582,0.133,3069
5.583,0.573,3069
5.584,0.988,3069
5.585,1.238,3069
5.586,1.350,3069
5.587,1.262,3069
5.588,1.010,3069
5.589,0.632,3069
5.590,0.185,3069
5.591,-0.323,3111
5.592,-0.845,3111
5.593,-1.325,3111
5.594,-1.738,3111
5.595,-1.990,3111
5.596,-2.090,3111
5.597,-2.018,3111
5.598,-1.782,3111
5.599,-1.407,3111
5.600,-0.375,3116
5.601,0.542,3116
5.602,0.943,3116
5.603,1.212,3116
5.604,1.333,3116
5.605,1.248,3116
5.606,1.022,3116
5.607,0.637,3116
5.608,0.182,3116
5.609,-0.300,3124
5.610,-0.825,3124
5.611,-1.327,3124
5.612,-1.722,3124
5.613,-1.985,3124
5.614,-2.092,3124
5.615,-2.025,3124
5.616,-1.800,3124
5.617,-1.423,3124
5.618,-0.965,3124
5.619,-0.485,3110
5.620,0.608,3110
5.621,0.943,3110
5.622,1.222,3110
5.623,1.345,3110
5.624,1.275,3110
5.625,1.060,3110
5.626,0.688,3110
5.627,0.233,3110
5.628,-0.258,3113
5.629,-0.782,3113
5.630,-1.260,3113
5.631,-1.692,3113
5.632,-1.968,3113
5.633,-2.065,3113
5.634,-2.018,3113
5.635,-1.792,3113
5.636,-1.423,3113
5.637,-0.973,3113
5.638,-0.490,3117
5.639,0.043,3117
5.640,0.980,3117
5.641,1.210,3117
5.642,1.323,3117
5.643,1.258,3117
5.644,1.025,3117
5.645,0.660,3117
5.646,0.198,3117
5.647,-0.290,3120
5.648,-0.818,3120
5.649,-1.292,3120
5.650,-1.695,3120
5.651,-1.948,3120
5.652,-2.050,3120
5.653,-1.990,3120
5.654,-1.772,3120
5.655,-1.403,3120
5.656,-0.938,3120
5.657,-0.458,3120
5.658,0.062,3120
5.659,0.537,3120
5.660,1.240,3120
5.661,1.345,3120
5.662,1.275,3120
5.663,1.062,3120
5.664,0.690,3120
5.665,0.228,3120
5.666,-0.268,3129
5.667,-0.810,3129
5.668,-1.292,3129
5.669,-1.708,3129
5.670,-1.978,3129
5.671,-2.092,3129
5.672,-2.033,3129
5.673,-1.820,3129
5.674,-1.460,3129
5.675,-0.993,3129
5.676,-0.507,3139
5.677,-0.010,3139
5.678,0.480,3139
5.679,0.907,3139
5.680,1.312,3139
5.681,1.252,3139
5.682,1.028,3139
5.683,0.662,3139
5.684,0.207,3139
5.685,-0.305,3140
5.686,-0.820,3140
5.687,-1.300,3140
5.688,-1.722,3140
5.689,-1.992,3140
5.690,-2.107,3140
5.691,-2.053,3140
5.692,-1.843,3140
5.693,-1.472,3140
5.694,-1.018,3140
5.695,-0.532,3140
5.696,-0.013,3140
5.697,0.475,3140
5.698,0.907,3140
5.699,1.210,3140
5.700,1.298,3140
5.701,1.093,3140
5.702,0.738,3140
5.703,0.292,3140
5.704,-0.188,3131
5.705,-0.715,3131
5.706,-1.202,3131
5.707,-1.645,3131
5.708,-1.927,3131
5.709,-2.045,3131
5.710,-2.007,3131
5.711,-1.792,3131
5.712,-1.442,3131
5.713,-0.988,3131
5.714,-0.497,3141
5.715,0.018,3141
5.716,0.500,3141
5.717,0.932,3141
5.718,1.228,3141
5.719,1.373,3141
5.720,1.058,3141
5.721,0.718,3141
5.722,0.292,3141
5.723,-0.182,3148
5.724,-0.710,3148
5.725,-1.208,3148
5.726,-1.633,3148
5.727,-1.923,3148
5.728,-2.047,3148
5.729,-2.015,3148
5.730,-1.802,3148
5.731,-1.452,3148
5.732,-1.008,3148
5.733,-0.530,3138
5.734,-0.022,3138
5.735,0.468,3138
5.736,0.900,3138
5.737,1.192,3138
5.738,1.335,3138
5.739,1.308,3138
5.740,0.652,3138
5.741,0.268,3138
5.742,-0.223,3131
5.743,-0.750,3131
5.744,-1.245,3131
5.745,-1.683,3131
5.746,-1.968,3131
5.747,-2.092,3131
5.748,-2.045,3131
5.749,-1.827,3131
5.750,-1.470,3131
5.751,-1.012,3131
5.752,-0.532,3125
5.753,-0.022,3125
5.754,0.470,3125
5.755,0.910,3125
5.756,1.218,3125
5.757,1.345,3125
5.758,1.315,3125
5.759,1.080,3125
5.760,0.205,3125
5.761,-0.203,3141
5.762,-0.723,3141
5.763,-1.212,3141
5.764,-1.647,3141
5.765,-1.948,3141
5.766,-2.080,3141
5.767,-2.042,3141
5.768,-1.830,3141
5.769,-1.480,3141
5.770,-1.018,3141
5.771,-0.530,3128
5.772,-0.022,3128
5.773,0.468,3128
5.774,0.912,3128
5.775,1.218,3128
5.776,1.357,3128
5.777,1.333,3128
5.778,1.117,3128
5.779,0.767,3128
5.780,-0.258,3121
5.781,-1.218,3121
5.782,-1.625,3121
5.783,-1.907,3121
5.784,-2.047,3121
5.785,-2.022,3121
5.786,-1.827,3121
5.787,-1.472,3121
5.788,-1.032,3121
5.789,-0.550,3109
5.790,-0.055,3109
5.791,0.435,3109
5.792,0.863,3109
5.793,1.167,3109
5.794,1.312,3109
5.795,1.268,3109
5.796,1.067,3109
5.797,0.730,3109
5.798,0.292,3109
5.799,-0.188,3117
5.800,-1.288,3117
5.801,-1.650,3117
5.802,-1.948,3117
5.803,-2.087,3117
5.804,-2.053,3117
5.805,-1.853,3117
5.806,-1.508,3117
5.807,-1.058,3117
5.808,-0.568,3117
5.809,-0.062,3128
5.810,0.448,3128
5.811,0.887,3128
5.812,1.192,3128
5.813,1.343,3128
5.814,1.330,3128
5.815,1.113,3128
5.816,0.767,3128
5.817,0.333,3128
5.818,-0.165,3128
5.819,-0.672,3130
5.820,-1.663,3130
5.821,-1.903,3130
5.822,-2.038,3130
5.823,-2.022,3130
5.824,-1.830,3130
5.825,-1.502,3130
5.826,-1.048,3130
5.827,-0.578,3130
5.828,-0.083,3125
5.829,0.427,3125
5.830,0.863,3125
5.831,1.180,3125
5.832,1.337,3125
5.833,1.323,3125
5.834,1.113,3125
5.835,0.772,3125
5.836,0.343,3125
5.837,-0.168,3125
5.838,-0.672,3096
5.839,-1.177,3096
5.840,-1.965,3096
5.841,-2.087,3096
5.842,-2.062,3096
5.843,-1.873,3096
5.844,-1.538,3096
5.845,-1.083,3096
5.846,-0.593,3096
5.847,-0.098,3103
5.848,0.420,3103
5.849,0.870,3103
5.850,1.183,3103
5.851,1.340,3103
5.852,1.333,3103
5.853,1.145,3103
5.854,0.818,3103
5.855,0.372,3103
5.856,-0.102,3103
5.857,-0.608,3112
5.858,-1.130,3112
5.859,-1.573,3112
5.860,-2.062,3112
5.861,-2.042,3112
5.862,-1.867,3112
5.863,-1.542,3112
5.864,-1.103,3112
5.865,-0.620,3112
5.866,-0.130,3099
5.867,0.383,3099
5.868,0.820,3099
5.869,1.137,3099
5.870,1.302,3099
5.871,1.295,3099
5.872,1.097,3099
5.873,0.770,3099
5.874,0.338,3099
5.875,-0.145,3099
5.876,-0.657,3110
5.877,-1.167,3110
5.878,-1.613,3110
5.879,-1.940,3110
5.880,-2.022,3110
5.881,-1.857,3110
5.882,-1.528,3110
5.883,-1.085,3110
5.884,-0.573,3110
5.885,-0.102,3119
5.886,0.393,3119
5.887,0.833,3119
5.888,1.153,3119
5.889,1.317,3119
5.890,1.308,3119
5.891,1.110,3119
5.892,0.777,3119
5.893,0.338,3119
5.894,-0.142,3119
5.895,-0.657,3099
5.896,-1.167,3099
5.897,-1.613,3099
5.898,-1.930,3099
5.899,-2.080,3099
5.900,-1.847,3099
5.901,-1.535,3099
5.902,-1.127,3099
5.903,-0.657,3099
5.904,-0.160,3116
5.905,0.367,3116
5.906,0.792,3116
5.907,1.117,3116
5.908,1.295,3116
5.909,1.302,3116
5.910,1.105,3116
5.911,0.787,3116
5.912,0.365,3116
5.913,-0.107,3116
5.914,-0.618,3134
5.915,-1.133,3134
5.916,-1.573,3134
5.917,-1.897,3134
5.918,-2.053,3134
5.919,-2.053,3134
5.920,-1.482,3134
5.921,-1.022,3134
5.922,-0.640,3134
5.923,-0.133,3116
5.924,0.388,3116
5.925,0.838,3116
5.926,1.167,3116
5.927,1.343,3116
5.928,1.353,3116
5.929,1.175,3116
5.930,0.848,3116
5.931,0.398,3116
5.932,-0.090,3116
5.933,-0.603,3132
5.934,-1.107,3132
5.935,-1.562,3132
5.936,-1.887,3132
5.937,-2.053,3132
5.938,-2.062,3132
5.939,-1.893,3132
5.940,-1.055,3132
5.941,-0.542,3132
5.942,-0.168,3147
5.943,0.398,3147
5.944,0.825,3147
5.945,1.137,3147
5.946,1.310,3147
5.947,1.327,3147
5.948,1.147,3147
5.949,0.838,3147
5.950,0.415,3147
5.951,-0.062,3147
5.952,-0.562,3134
5.953,-1.073,3134
5.954,-1.532,3134
5.955,-1.863,3134
5.956,-2.042,3134
5.957,-2.050,3134
5.958,-1.893,3134
5.959,-1.583,3134
5.960,-0.593,3134
5.961,-0.188,3130
5.962,0.318,3130
5.963,0.775,3130
5.964,1.113,3130
5.965,1.310,3130
5.966,1.330,3130
5.967,1.155,3130
5.968,0.833,3130
5.969,0.412,3130
5.970,-0.072,3130
5.971,-0.578,3112
5.972,-1.093,3112
5.973,-1.542,3112
5.974,-1.873,3112
5.975,-2.053,3112
5.976,-2.083,3112
5.977,-1.897,3112
5.978,-1.607,3112
5.979,-1.175,3112
5.980,-0.102,3136
5.981,0.830,3136
5.982,1.120,3136
5.983,1.335,3136
5.984,1.353,3136
5.985,1.190,3136
5.986,0.885,3136
5.987,0.458,3136
5.988,-0.028,3136
5.989,-0.537,3110
5.990,-1.060,3110
5.991,-1.522,3110
5.992,-1.865,3110
5.993,-2.053,3110
5.994,-2.062,3110
5.995,-1.923,3110
5.996,-1.605,3110
5.997,-1.173,3110
5.998,-0.688,3110
5.999,-0.193,3117
6.000,0.850,3117
6.001,1.120,3117
6.002,1.323,3117
6.003,1.343,3117
6.004,1.117,3117
6.005,0.868,3117
6.006,0.438,3117
6.007,-0.028,3117
6.008,-0.537,3140
6.009,-1.058,3140
6.010,-1.522,3140
6.011,-1.863,3140
6.012,-2.047,3140
6.013,-2.067,3140
6.014,-1.927,3140
6.015,-1.615,3140
6.016,-1.188,3140
6.017,-0.708,3140
6.018,-0.212,3132
6.019,0.287,3132
6.020,1.137,3132
6.021,1.298,3132
6.022,1.325,3132
6.023,1.167,3132
6.024,0.865,3132
6.025,0.450,3132
6.026,-0.022,3132
6.027,-0.510,3123
6.028,-1.028,3123
6.029,-1.482,3123
6.030,-1.823,3123
6.031,-2.005,3123
6.032,-2.030,3123
6.033,-1.883,3123
6.034,-1.583,3123
6.035,-1.163,3123
6.036,-0.685,3123
6.037,-0.193,3114
6.038,0.312,3114
6.039,0.772,3114
6.040,1.327,3114
6.041,1.337,3114
6.042,1.177,3114
6.043,0.870,3114
6.044,0.453,3114
6.045,-0.022,3114
6.046,-0.527,3120
6.047,-1.055,3120
6.048,-1.512,3120
6.049,-1.867,3120
6.050,-2.080,3120
6.051,-2.107,3120
6.052,-1.968,3120
6.053,-1.663,3120
6.054,-1.238,3120
6.055,-0.748,3120
6.056,-0.253,3121
6.057,0.260,3121
6.058,0.720,3121
6.059,1.080,3121
6.060,1.323,3121
6.061,1.183,3121
6.062,0.887,3121
6.063,0.460,3121
6.064,-0.022,3121
6.065,-0.522,3121
6.066,-1.028,3089
6.067,-1.502,3089
6.068,-1.855,3089
6.069,-2.035,3089
6.070,-2.085,3089
6.071,-1.938,3089
6.072,-1.647,3089
6.073,-1.188,3089
6.074,-0.733,3089
6.075,-0.233,3089
6.076,0.268,3114
6.077,0.748,3114
6.078,1.100,3114
6.079,1.327,3114
6.080,1.170,3114
6.081,0.907,3114
6.082,0.477,3114
6.083,0.018,3114
6.084,-0.510,3114
6.085,-1.025,3112
6.086,-1.512,3112
6.087,-1.867,3112
6.088,-2.058,3112
6.089,-2.098,3112
6.090,-1.952,3112
6.091,-1.657,3112
6.092,-1.228,3112
6.093,-0.748,3112
6.094,-0.250,3112
6.095,0.263,3120
6.096,0.738,3120
6.097,1.103,3120
6.098,1.323,3120
6.099,1.357,3120
6.100,0.858,3120
6.101,0.497,3120
6.102,0.020,3120
6.103,-0.497,3120
6.104,-1.018,3119
6.105,-1.510,3119
6.106,-1.867,3119
6.107,-2.083,3119
6.108,-2.127,3119
6.109,-1.985,3119
6.110,-1.695,3119
6.111,-1.255,3119
6.112,-0.780,3119
6.113,-0.282,3119
6.114,0.230,3123
6.115,0.718,3123
6.116,1.087,3123
6.117,1.302,3123
6.118,1.347,3123
6.119,1.210,3123
6.120,0.420,3123
6.121,0.018,3123
6.122,-0.502,3123
6.123,-1.012,3109
6.124,-1.508,3109
6.125,-1.867,3109
6.126,-2.098,3109
6.127,-2.143,3109
6.128,-2.018,3109
6.129,-1.725,3109
6.130,-1.308,3109
6.131,-0.820,3109
6.132,-0.323,3109
6.133,0.217,3111
6.134,0.703,3111
6.135,1.025,3111
6.136,1.330,3111
6.137,1.385,3111
6.138,1.228,3111
6.139,0.915,3111
6.140,-0.075,3111
6.141,-0.512,3111
6.142,-1.032,3125
6.143,-1.535,3125
6.144,-1.900,3125
6.145,-2.107,3125
6.146,-2.147,3125
6.147,-2.015,3125
6.148,-1.725,3125
6.149,-1.302,3125
6.150,-0.812,3125
6.151,-0.292,3125
6.152,0.230,3129
6.153,0.718,3129
6.154,1.097,3129
6.155,1.327,3129
6.156,1.377,3129
6.157,1.238,3129
6.158,0.948,3129
6.159,0.537,3129
6.160,-0.573,3129
6.161,-1.022,3078
6.162,-1.505,3078
6.163,-1.873,3078
6.164,-2.092,3078
6.165,-2.138,3078
6.166,-2.018,3078
6.167,-1.718,3078
6.168,-1.302,3078
6.169,-0.818,3078
6.170,-0.297,3078
6.171,0.255,3131
6.172,0.720,3131
6.173,1.095,3131
6.174,1.325,3131
6.175,1.380,3131
6.176,1.252,3131
6.177,0.953,3131
6.178,0.550,3131
6.179,0.072,3131
6.180,-1.048,3118
6.181,-1.843,3118
6.182,-2.053,3118
6.183,-2.132,3118
6.184,-2.018,3118
6.185,-1.740,3118
6.186,-1.337,3118
6.187,-0.855,3118
6.188,-0.352,3118
6.189,0.168,3122
6.190,0.662,3122
6.191,1.038,3122
6.192,1.270,3122
6.193,1.357,3122
6.194,1.232,3122
6.195,0.958,3122
6.196,0.542,3122
6.197,0.065,3122
6.198,-0.445,3122
6.199,-0.963,3132
6.200,-1.883,3132
6.201,-2.050,3132
6.202,-2.112,3132
6.203,-1.992,3132
6.204,-1.728,3132
6.205,-1.330,3132
6.206,-0.833,3132
6.207,-0.343,3132
6.208,0.177,3134
6.209,0.665,3134
6.210,1.055,3134
6.211,1.275,3134
6.212,1.367,3134
6.213,1.248,3134
6.214,0.978,3134
6.215,0.570,3134
6.216,0.100,3134
6.217,-0.412,3134
6.218,-0.922,3120
6.219,-1.423,3120
6.220,-2.065,3120
6.221,-2.007,3120
6.222,-1.742,3120
6.223,-1.343,3120
6.224,-0.858,3120
6.225,-0.352,3120
6.226,0.172,3156
6.227,0.667,3156
6.228,1.062,3156
6.229,1.308,3156
6.230,1.383,3156
6.231,1.262,3156
6.232,0.988,3156
6.233,0.578,3156
6.234,0.098,3156
6.235,-0.420,3156
6.236,-0.940,3130
6.237,-1.460,3130
6.238,-1.853,3130
6.239,-2.083,3130
6.240,-2.013,3130
6.241,-1.780,3130
6.242,-1.367,3130
6.243,-0.882,3130
6.244,-0.372,3130
6.245,0.147,3119
6.246,0.637,3119
6.247,1.038,3119
6.248,1.272,3119
6.249,1.367,3119
6.250,1.252,3119
6.251,0.993,3119
6.252,0.590,3119
6.253,0.107,3119
6.254,-0.388,3119
6.255,-0.907,3137
6.256,-1.413,3137
6.257,-1.812,3137
6.258,-2.050,3137
6.259,-2.125,3137
6.260,-1.692,3137
6.261,-1.345,3137
6.262,-0.868,3137
6.263,-0.365,3137
6.264,0.147,3132
6.265,0.637,3132
6.266,1.058,3132
6.267,1.262,3132
6.268,1.357,3132
6.269,1.252,3132
6.270,0.993,3132
6.271,0.588,3132
6.272,0.107,3132
6.273,-0.393,3132
6.274,-0.912,3130
6.275,-1.442,3130
6.276,-1.830,3130
6.277,-2.067,3130
6.278,-2.152,3130
6.279,-2.060,3130
6.280,-1.268,3130
6.281,-0.873,3130
6.282,-0.380,3130
6.283,0.113,3127
6.284,0.608,3127
6.285,1.012,3127
6.286,1.258,3127
6.287,1.353,3127
6.288,1.232,3127
6.289,0.983,3127
6.290,0.568,3127
6.291,0.117,3127
6.292,-0.427,3127
6.293,-0.892,3133
6.294,-1.407,3133
6.295,-1.817,3133
6.296,-2.042,3133
6.297,-2.125,3133
6.298,-2.018,3133
6.299,-1.785,3133
6.300,-0.830,3133
6.301,-0.410,3133
6.302,0.107,3142
6.303,0.598,3142
6.304,1.008,3142
6.305,1.252,3142
6.306,1.355,3142
6.307,1.260,3142
6.308,1.018,3142
6.309,0.613,3142
6.310,0.147,3142
6.311,-0.352,3142
6.312,-0.882,3128
6.313,-1.400,3128
6.314,-1.808,3128
6.315,-2.058,3128
6.316,-2.147,3128
6.317,-2.053,3128
6.318,-1.802,3128
6.319,-1.393,3128
6.320,-0.300,3128
6.321,0.130,3128
6.322,0.623,3132
6.323,1.050,3132
6.324,1.308,3132
6.325,1.393,3132
6.326,1.302,3132
6.327,1.032,3132
6.328,0.632,3132
6.329,0.172,3132
6.330,-0.335,3132
6.331,-0.855,3132
6.332,-1.363,3123
6.333,-1.778,3123
6.334,-2.022,3123
6.335,-2.115,3123
6.336,-2.027,3123
6.337,-1.780,3123
6.338,-1.383,3123
6.339,-0.900,3123
6.340,0.217,3103
6.341,1.090,3103
6.342,1.333,3103
6.343,1.427,3103
6.344,1.350,3103
6.345,1.097,3103
6.346,0.703,3103
6.347,0.225,3103
6.348,-0.278,3103
6.349,-0.823,3103
6.350,-1.337,3110
6.351,-1.768,3110
6.352,-2.022,3110
6.353,-2.127,3110
6.354,-2.053,3110
6.355,-1.817,3110
6.356,-1.423,3110
6.357,-0.948,3110
6.358,-0.453,3110
6.359,0.068,3110
6.360,1.028,3118
6.361,1.357,3118
6.362,1.265,3118
6.363,1.032,3118
6.364,0.632,3118
6.365,0.158,3118
6.366,-0.343,3118
6.367,-0.863,3118
6.368,-1.370,3106
6.369,-1.802,3106
6.370,-2.055,3106
6.371,-2.152,3106
6.372,-2.083,3106
6.373,-1.833,3106
6.374,-1.458,3106
6.375,-0.980,3106
6.376,-0.487,3106
6.377,0.048,3106
6.378,0.547,3113
6.379,0.978,3113
6.380,1.353,3113
6.381,1.250,3113
6.382,1.020,3113
6.383,0.623,3113
6.384,0.182,3113
6.385,-0.350,3113
6.386,-0.823,3113
6.387,-1.347,3117
6.388,-1.742,3117
6.389,-2.010,3117
6.390,-2.103,3117
6.391,-2.018,3117
6.392,-1.788,3117
6.393,-1.387,3117
6.394,-0.945,3117
6.395,-0.448,3117
6.396,0.060,3117
6.397,0.552,3103
6.398,0.983,3103
6.399,1.238,3103
6.400,1.258,3103
6.401,1.052,3103
6.402,0.583,3103
6.403,0.207,3103
6.404,-0.343,3103
6.405,-0.818,3103
6.406,-1.327,3115
6.407,-1.742,3115
6.408,-2.013,3115
6.409,-2.120,3115
6.410,-2.053,3115
6.411,-1.823,3115
6.412,-1.452,3115
6.413,-0.983,3115
6.414,-0.497,3115
6.415,0.020,3115
6.416,0.507,3116
6.417,0.927,3116
6.418,1.198,3116
6.419,1.323,3116
6.420,0.960,3116
6.421,0.657,3116
6.422,0.203,3116
6.423,-0.287,3116
6.424,-0.805,3116
6.425,-1.292,3095
6.426,-1.702,3095
6.427,-1.978,3095
6.428,-2.085,3095
6.429,-2.015,3095
6.430,-1.782,3095
6.431,-1.413,3095
6.432,-0.943,3095
6.433,-0.450,3095
6.434,0.068,3095
6.435,0.568,3126
6.436,0.993,3126
6.437,1.248,3126
6.438,1.370,3126
6.439,1.308,3126
6.440,0.615,3126
6.441,0.210,3126
6.442,-0.268,3126
6.443,-0.772,3126
6.444,-1.265,3139
6.445,-1.705,3139
6.446,-1.980,3139
6.447,-2.098,3139
6.448,-2.045,3139
6.449,-1.827,3139
6.450,-1.462,3139
6.451,-1.008,3139
6.452,-0.515,3139
6.453,-0.018,3139
6.454,0.497,3122
6.455,0.917,3122
6.456,1.210,3122
6.457,1.340,3122
6.458,1.302,3122
6.459,1.073,3122
6.460,0.172,3122
6.461,-0.247,3122
6.462,-0.787,3122
6.463,-1.288,3129
6.464,-1.728,3129
6.465,-1.995,3129
6.466,-2.125,3129
6.467,-2.083,3129
6.468,-1.853,3129
6.469,-1.498,3129
6.470,-1.035,3129
6.471,-0.535,3129
6.472,-0.028,3129
6.473,0.477,3126
6.474,0.927,3126
6.475,1.215,3126
6.476,1.343,3126
6.477,1.302,3126
6.478,1.073,3126
6.479,0.713,3126
6.480,-0.328,3126
6.481,-0.752,3126
6.482,-1.242,3130
6.483,-1.690,3130
6.484,-1.970,3130
6.485,-2.087,3130
6.486,-2.033,3130
6.487,-1.827,3130
6.488,-1.472,3130
6.489,-1.022,3130
6.490,-0.532,3130
6.491,-0.033,3130
6.492,0.472,3139
6.493,0.907,3139
6.494,1.192,3139
6.495,1.333,3139
6.496,1.302,3139
6.497,1.073,3139
6.498,0.730,3139
6.499,0.282,3139
6.500,-0.807,3139
6.501,-1.210,3138
6.502,-1.663,3138
6.503,-1.940,3138
6.504,-2.060,3138
6.505,-2.022,3138
6.506,-1.820,3138
6.507,-1.468,3138
6.508,-1.022,3138
6.509,-0.537,3138
6.510,-0.033,3138
6.511,0.465,3130
6.512,0.902,3130
6.513,1.188,3130
6.514,1.327,3130
6.515,1.298,3130
6.516,1.075,3130
6.517,0.718,3130
6.518,0.263,3130
6.519,-0.220,3130
6.520,-1.335,3136
6.521,-1.972,3136
6.522,-2.107,3136
6.523,-2.035,3136
6.524,-1.812,3136
6.525,-1.472,3136
6.526,-1.012,3136
6.527,-0.512,3136
6.528,0.013,3136
6.529,0.505,3117
6.530,0.943,3117
6.531,1.238,3117
6.532,1.373,3117
6.533,1.340,3117
6.534,1.107,3117
6.535,0.750,3117
6.536,0.290,3117
6.537,-0.203,3117
6.538,-0.708,3117
6.539,-1.215,3124
6.540,-1.995,3124
6.541,-2.103,3124
6.542,-2.062,3124
6.543,-1.860,3124
6.544,-1.508,3124
6.545,-1.055,3124
6.546,-0.562,3124
6.547,-0.048,3124
6.548,0.460,3119
6.549,0.917,3119
6.550,1.218,3119
6.551,1.370,3119
6.552,1.345,3119
6.553,1.137,3119
6.554,0.772,3119
6.555,0.312,3119
6.556,-0.207,3119
6.557,-0.685,3119
6.558,-1.188,3117
6.559,-1.650,3117
6.560,-2.083,3117
6.561,-1.897,3117
6.562,-1.482,3117
6.563,-1.028,3117
6.564,-0.537,3117
6.565,-0.030,3117
6.566,0.468,3117
6.567,0.902,3118
6.568,1.210,3118
6.569,1.350,3118
6.570,1.337,3118
6.571,1.107,3118
6.572,0.770,3118
6.573,0.335,3118
6.574,-0.168,3118
6.575,-0.667,3118
6.576,-1.173,3118
6.577,-1.630,3119
6.578,-1.945,3119
6.579,-2.083,3119
6.580,-1.808,3119
6.581,-1.502,3119
6.582,-1.048,3119
6.583,-0.552,3119
6.584,-0.048,3119
6.585,0.453,3119
6.586,0.897,3127
6.587,1.212,3127
6.588,1.357,3127
6.589,1.357,3127
6.590,1.153,3127
6.591,0.797,3127
6.592,0.357,3127
6.593,-0.138,3127
6.594,-0.657,3127
6.595,-1.173,3127
6.596,-1.627,3123
6.597,-1.945,3123
6.598,-2.087,3123
6.599,-2.053,3123
6.600,-1.442,3123
6.601,-1.062,3123
6.602,-0.578,3123
6.603,-0.070,3123
6.604,0.432,3123
6.605,0.877,3118
6.606,1.198,3118
6.607,1.350,3118
6.608,1.345,3118
6.609,1.137,3118
6.610,0.782,3118
6.611,0.340,3118
6.612,-0.163,3118
6.613,-0.670,3118
6.614,-1.173,3118
6.615,-1.627,3104
6.616,-1.948,3104
6.617,-2.087,3104
6.618,-2.062,3104
6.619,-1.865,3104
6.620,-1.010,3104
6.621,-0.603,3104
6.622,-0.100,3104
6.623,0.412,3104
6.624,0.863,3104
6.625,1.180,3104
6.626,1.337,3104
6.627,1.327,3104
6.628,1.133,3104
6.629,0.787,3104
6.630,0.347,3104
6.631,-0.142,3104
6.632,-0.655,3104
6.633,-1.147,3104
6.634,-1.607,3100
6.635,-1.905,3100
6.636,-2.058,3100
6.637,-2.047,3100
6.638,-1.863,3100
6.639,-1.528,3100
6.640,-0.522,3100
6.641,-0.098,3100
6.642,0.407,3100
6.643,0.858,3115
6.644,1.173,3115
6.645,1.335,3115
6.646,1.323,3115
6.647,1.117,3115
6.648,0.780,3115
6.649,0.343,3115
6.650,-0.140,3115
6.651,-0.655,3115
6.652,-1.153,3115
6.653,-1.630,3116
6.654,-1.933,3116
6.655,-2.083,3116
6.656,-2.060,3116
6.657,-1.873,3116
6.658,-1.540,3116
6.659,-1.093,3116
6.660,-0.018,3116
6.661,0.427,3116
6.662,0.863,3124
6.663,1.192,3124
6.664,1.357,3124
6.665,1.357,3124
6.666,1.173,3124
6.667,0.838,3124
6.668,0.390,3124
6.669,-0.100,3124
6.670,-0.610,3124
6.671,-1.130,3124
6.672,-1.583,3120
6.673,-1.907,3120
6.674,-2.062,3120
6.675,-2.060,3120
6.676,-1.873,3120
6.677,-1.550,3120
6.678,-1.097,3120
6.679,-0.610,3120
6.680,0.497,3120
6.681,0.868,3131
6.682,1.198,3131
6.683,1.373,3131
6.684,1.367,3131
6.685,1.177,3131
6.686,0.850,3131
6.687,0.412,3131
6.688,-0.068,3131
6.689,-0.573,3131
6.690,-1.073,3131
6.691,-1.532,3102
6.692,-1.857,3102
6.693,-2.018,3102
6.694,-2.022,3102
6.695,-1.847,3102
6.696,-1.512,3102
6.697,-1.073,3102
6.698,-0.588,3102
6.699,-0.092,3102
6.700,0.917,3142
6.701,1.337,3142
6.702,1.333,3142
6.703,1.147,3142
6.704,0.818,3142
6.705,0.378,3142
6.706,-0.107,3142
6.707,-0.620,3142
6.708,-1.130,3142
6.709,-1.577,3133
6.710,-1.907,3133
6.711,-2.065,3133
6.712,-2.083,3133
6.713,-1.895,3133
6.714,-1.573,3133
6.715,-1.137,3133
6.716,-0.660,3133
6.717,-0.147,3133
6.718,0.350,3133
6.719,0.792,3136
6.720,1.305,3136
6.721,1.305,3136
6.722,1.140,3136
6.723,0.825,3136
6.724,0.393,3136
6.725,-0.083,3136
6.726,-0.578,3136
6.727,-1.075,3136
6.728,-1.535,3132
6.729,-1.865,3132
6.730,-2.025,3132
6.731,-2.027,3132
6.732,-1.865,3132
6.733,-1.542,3132
6.734,-1.103,3132
6.735,-0.627,3132
6.736,-0.130,3132
6.737,0.372,3132
6.738,0.833,3128
6.739,1.167,3128
6.740,1.343,3128
6.741,1.177,3128
6.742,0.875,3128
6.743,0.450,3128
6.744,-0.028,3128
6.745,-0.530,3128
6.746,-1.042,3128
6.747,-1.492,3137
6.748,-1.843,3137
6.749,-2.018,3137
6.750,-2.027,3137
6.751,-1.870,3137
6.752,-1.555,3137
6.753,-1.135,3137
6.754,-0.662,3137
6.755,-0.147,3137
6.756,0.333,3137
6.757,0.772,3144
6.758,1.107,3144
6.759,1.270,3144
6.760,1.077,3144
6.761,0.815,3144
6.762,0.388,3144
6.763,-0.083,3144
6.764,-0.583,3144
6.765,-1.073,3144
6.766,-1.532,3128
6.767,-1.867,3128
6.768,-2.027,3128
6.769,-2.045,3128
6.770,-1.873,3128
6.771,-1.567,3128
6.772,-1.133,3128
6.773,-0.655,3128
6.774,-0.147,3128
6.775,0.365,3128
6.776,0.828,3140
6.777,1.157,3140
6.778,1.343,3140
6.779,1.357,3140
6.780,0.818,3140
6.781,0.427,3140
6.782,-0.040,3140
6.783,-0.540,3140
6.784,-1.048,3140
6.785,-1.512,3141
6.786,-1.863,3141
6.787,-2.045,3141
6.788,-2.067,3141
6.789,-1.927,3141
6.790,-1.617,3141
6.791,-1.183,3141
6.792,-0.705,3141
6.793,-0.207,3141
6.794,0.302,3141
6.795,0.770,3127
6.796,1.113,3127
6.797,1.312,3127
6.798,1.347,3127
6.799,1.188,3127
6.800,0.385,3127
6.801,-0.013,3127
6.802,-0.512,3127
6.803,-1.020,3127
6.804,-1.500,3124
6.805,-1.863,3124
6.806,-2.047,3124
6.807,-2.083,3124
6.808,-1.933,3124
6.809,-1.625,3124
6.810,-1.202,3124
6.811,-0.725,3124
6.812,-0.225,3124
6.813,0.280,3124
6.814,0.743,3120
6.815,1.100,3120
6.816,1.302,3120
6.817,1.343,3120
6.818,1.180,3120
6.819,0.887,3120
6.820,-0.092,3120
6.821,-0.552,3120
6.822,-1.012,3120
6.823,-1.482,3120
