Czas(s),EKG_Surowe(mV),PPG_Surowe(ADC)
0.000,1.232,3116
0.004,0.993,3116
0.008,0.590,3116
0.012,0.117,3116
0.016,-0.383,3107
0.020,-0.897,3107
0.024,-1.375,3107
0.028,-1.748,3107
0.032,-1.968,3107
0.036,-2.035,3107
0.040,-1.933,3107
0.044,-1.663,3107
0.048,-1.250,3107
0.052,-0.775,3107
0.056,-0.285,3121
0.060,0.223,3121
0.064,0.688,3121
0.068,1.060,3121
0.072,1.302,3121
0.076,1.377,3121
0.080,0.938,3121
0.084,0.562,3121
0.088,0.095,3121
0.092,-0.432,3114
0.096,-0.912,3114
0.100,-1.380,3114
0.104,-1.748,3114
0.108,-1.972,3114
0.112,-2.030,3114
0.116,-1.927,3114
0.120,-1.653,3114
0.124,-1.232,3114
0.128,-0.762,3114
0.132,-0.273,3123
0.136,0.233,3123
0.140,0.708,3123
0.144,1.087,3123
0.148,1.323,3123
0.152,1.393,3123
0.156,1.298,3123
0.160,0.542,3123
0.164,-0.502,3132
0.168,-1.415,3132
0.172,-1.748,3132
0.176,-1.962,3132
0.180,-2.013,3132
0.184,-1.893,3132
0.188,-1.623,3132
0.192,-1.202,3132
0.196,-0.723,3132
0.200,-0.253,3112
0.204,0.258,3112
0.208,0.728,3112
0.212,1.097,3112
0.216,1.337,3112
0.220,1.397,3112
0.224,1.305,3112
0.228,1.022,3112
0.232,0.618,3112
0.236,0.145,3112
0.240,-0.945,3126
0.244,-1.722,3126
0.248,-1.942,3126
0.252,-2.007,3126
0.256,-1.897,3126
0.260,-1.640,3126
0.264,-1.230,3126
0.268,-0.765,3126
0.272,-0.270,3118
0.276,0.228,3118
0.280,0.695,3118
0.284,1.062,3118
0.288,1.298,3118
0.292,1.357,3118
0.296,1.238,3118
0.300,0.980,3118
0.304,0.575,3118
0.308,0.098,3118
0.312,-0.393,3124
0.316,-0.902,3124
0.320,-1.792,3124
0.324,-1.968,3124
0.328,-2.027,3124
0.332,-1.907,3124
0.336,-1.655,3124
0.340,-1.252,3124
0.344,-0.785,3124
0.348,-0.302,3133
0.352,0.207,3133
0.356,0.677,3133
0.360,1.052,3133
0.364,1.272,3133
0.368,1.357,3133
0.372,1.248,3133
0.376,0.988,3133
0.380,0.590,3133
0.384,0.117,3133
0.388,-0.375,3124
0.392,-0.892,3124
0.396,-1.350,3124
0.400,-1.970,3124
0.404,-2.018,3124
0.408,-1.923,3124
0.412,-1.655,3124
0.416,-1.250,3124
0.420,-0.777,3124
0.424,-0.282,3108
0.428,0.225,3108
0.432,0.695,3108
0.436,1.073,3108
0.440,1.327,3108
0.444,1.390,3108
0.448,1.270,3108
0.452,1.010,3108
0.456,0.613,3108
0.460,0.152,3108
0.464,-0.352,3098
0.468,-0.868,3098
0.472,-1.345,3098
0.476,-1.728,3098
0.480,-2.018,3098
0.484,-1.930,3098
0.488,-1.657,3098
0.492,-1.252,3098
0.496,-0.780,3098
0.500,-0.287,3142
0.504,0.225,3142
0.508,0.698,3142
0.512,1.073,3142
0.516,1.308,3142
0.520,1.387,3142
0.524,1.272,3142
0.528,1.018,3142
0.532,0.615,3142
0.536,0.138,3142
0.540,-0.367,3125
0.544,-0.882,3125
0.548,-1.365,3125
0.552,-1.738,3125
0.556,-1.968,3125
0.560,-1.890,3125
0.564,-1.613,3125
0.568,-1.262,3125
0.572,-0.812,3125
0.576,-0.260,3127
0.580,0.235,3127
0.584,0.698,3127
0.588,1.070,3127
0.592,1.312,3127
0.596,1.393,3127
0.600,1.147,3127
0.604,0.573,3127
0.608,0.155,3127
0.612,-0.345,3122
0.616,-0.870,3122
0.620,-1.347,3122
0.624,-1.728,3122
0.628,-1.950,3122
0.632,-2.025,3122
0.636,-1.925,3122
0.640,-1.190,3122
0.644,-0.713,3122
0.648,-0.290,3132
0.652,0.225,3132
0.656,0.695,3132
0.660,1.077,3132
0.664,1.327,3132
0.668,1.397,3132
0.672,1.308,3132
0.676,1.030,3132
0.680,0.627,3132
0.684,0.158,3132
0.688,-0.345,3143
0.692,-0.868,3143
0.696,-1.337,3143
0.700,-1.715,3143
0.704,-1.948,3143
0.708,-2.018,3143
0.712,-1.923,3143
0.716,-1.655,3143
0.720,-0.703,3143
0.724,-0.273,3118
0.728,0.235,3118
0.732,0.700,3118
0.736,1.077,3118
0.740,1.310,3118
0.744,1.377,3118
0.748,1.252,3118
0.752,0.983,3118
0.756,0.583,3118
0.760,0.113,3118
0.764,-0.385,3119
0.768,-0.905,3119
0.772,-1.377,3119
0.776,-1.762,3119
0.780,-1.978,3119
0.784,-2.042,3119
0.788,-1.942,3119
0.792,-1.673,3119
0.796,-1.265,3119
0.800,-0.217,3136
0.804,0.703,3136
0.808,1.080,3136
0.812,1.333,3136
0.816,1.397,3136
0.820,1.302,3136
0.824,1.025,3136
0.828,0.630,3136
0.832,0.158,3136
0.836,-0.347,3139
0.840,-0.868,3139
0.844,-1.340,3139
0.848,-1.722,3139
0.852,-1.950,3139
0.856,-2.022,3139
0.860,-1.927,3139
0.864,-1.653,3139
0.868,-1.248,3139
0.872,-0.777,3139
0.876,-0.278,3139
0.880,0.760,3123
0.884,1.312,3123
0.888,1.377,3123
0.892,1.268,3123
0.896,0.998,3123
0.900,0.598,3123
0.904,0.133,3123
0.908,-0.367,3123
0.912,-0.882,3123
0.916,-1.353,3123
0.920,-1.730,3123
0.924,-1.952,3123
0.928,-2.018,3123
0.932,-1.907,3123
0.936,-1.655,3123
0.940,-1.258,3123
0.944,-0.782,3123
0.948,-0.297,3123
0.952,0.207,3111
0.956,0.688,3111
0.960,1.323,3111
0.964,1.375,3111
0.968,1.260,3111
0.972,0.995,3111
0.976,0.588,3111
0.980,0.117,3111
0.984,-0.372,3111
0.988,-0.880,3104
0.992,-1.367,3104
0.996,-1.740,3104
1.000,-1.968,3104
1.004,-2.033,3104
1.008,-1.942,3104
1.012,-1.673,3104
1.016,-1.290,3104
1.020,-0.812,3104
1.024,-0.307,3104
1.028,0.195,3117
1.032,0.685,3117
1.036,1.058,3117
1.040,1.367,3117
1.044,1.252,3117
1.048,0.993,3117
1.052,0.595,3117
1.056,0.138,3117
1.060,-0.378,3117
1.064,-0.892,3115
1.068,-1.375,3115
1.072,-1.742,3115
1.076,-1.972,3115
1.080,-2.042,3115
1.084,-1.942,3115
1.088,-1.667,3115
1.092,-1.262,3115
1.096,-0.805,3115
1.100,-0.297,3115
1.104,0.198,3113
1.108,0.685,3113
1.112,1.052,3113
1.116,1.292,3113
1.120,1.210,3113
1.124,0.975,3113
1.128,0.575,3113
1.132,0.113,3113
1.136,-0.385,3113
1.140,-0.895,3116
1.144,-1.367,3116
1.148,-1.732,3116
1.152,-1.952,3116
1.156,-2.027,3116
1.160,-1.927,3116
1.164,-1.667,3116
1.168,-1.290,3116
1.172,-0.818,3116
1.176,-0.333,3116
1.180,0.182,3116
1.184,0.667,3116
1.188,1.048,3116
1.192,1.270,3116
1.196,1.367,3116
1.200,0.927,3116
1.204,0.593,3116
1.208,0.130,3116
1.212,-0.365,3116
1.216,-0.868,3124
1.220,-1.353,3124
1.224,-1.712,3124
1.228,-1.948,3124
1.232,-2.022,3124
1.236,-1.927,3124
1.240,-1.660,3124
1.244,-1.262,3124
1.248,-0.802,3124
1.252,-0.297,3124
1.256,0.212,3117
1.260,0.693,3117
1.264,1.067,3117
1.268,1.312,3117
1.272,1.385,3117
1.276,1.298,3117
1.280,0.552,3117
1.284,0.152,3117
1.288,-0.343,3117
1.292,-0.863,3108
1.296,-1.353,3108
1.300,-1.738,3108
1.304,-1.968,3108
1.308,-2.038,3108
1.312,-1.938,3108
1.316,-1.683,3108
1.320,-1.292,3108
1.324,-0.810,3108
1.328,-0.307,3108
1.332,0.207,3127
1.336,0.688,3127
1.340,1.062,3127
1.344,1.302,3127
1.348,1.370,3127
1.352,1.252,3127
1.356,0.988,3127
1.360,0.048,3127
1.364,-0.383,3127
1.368,-0.978,3118
1.372,-1.738,3118
1.376,-1.955,3118
1.380,-2.018,3118
1.384,-1.907,3118
1.388,-1.647,3118
1.392,-1.232,3118
1.396,-0.767,3118
1.400,-0.275,3118
1.404,0.228,3129
1.408,0.700,3129
1.412,1.067,3129
1.416,1.302,3129
1.420,1.377,3129
1.424,1.262,3129
1.428,1.005,3129
1.432,0.613,3129
1.436,0.138,3129
1.440,-0.950,3140
1.444,-1.742,3140
1.448,-1.978,3140
1.452,-2.053,3140
1.456,-1.965,3140
1.460,-1.698,3140
1.464,-1.302,3140
1.468,-0.828,3140
1.472,-0.338,3140
1.476,0.175,3128
1.480,0.655,3128
1.484,1.038,3128
1.488,1.268,3128
1.492,1.353,3128
1.496,1.248,3128
1.500,0.993,3128
1.504,0.593,3128
1.508,0.117,3128
1.512,-0.383,3128
1.516,-0.892,3130
1.520,-1.792,3130
1.524,-1.972,3130
1.528,-2.033,3130
1.532,-1.942,3130
1.536,-1.688,3130
1.540,-1.298,3130
1.544,-0.823,3130
1.548,-0.328,3130
1.552,0.180,3132
1.556,0.662,3132
1.560,1.048,3132
1.564,1.275,3132
1.568,1.367,3132
1.572,1.265,3132
1.576,0.998,3132
1.580,0.598,3132
1.584,0.140,3132
1.588,-0.365,3132
1.592,-0.865,3129
1.596,-1.367,3129
1.600,-1.988,3129
1.604,-2.047,3129
1.608,-1.952,3129
1.612,-1.698,3129
1.616,-1.305,3129
1.620,-0.833,3129
1.624,-0.328,3129
1.628,0.188,3117
1.632,0.675,3117
1.636,1.058,3117
1.640,1.302,3117
1.644,1.383,3117
1.648,1.268,3117
1.652,1.012,3117
1.656,0.618,3117
1.660,0.147,3117
1.664,-0.347,3117
1.668,-0.858,3141
1.672,-1.345,3141
1.676,-1.722,3141
1.680,-2.030,3141
1.684,-1.942,3141
1.688,-1.683,3141
1.692,-1.292,3141
1.696,-0.823,3141
1.700,-0.328,3141
1.704,0.190,3131
1.708,0.688,3131
1.712,1.058,3131
1.716,1.300,3131
1.720,1.380,3131
1.724,1.262,3131
1.728,1.015,3131
1.732,0.593,3131
1.736,0.147,3131
1.740,-0.345,3131
1.744,-0.865,3129
1.748,-1.363,3129
1.752,-1.738,3129
1.756,-1.978,3129
1.760,-1.927,3129
1.764,-1.700,3129
1.768,-1.308,3129
1.772,-0.828,3129
1.776,-0.323,3129
1.780,0.188,3130
1.784,0.672,3130
1.788,1.062,3130
1.792,1.317,3130
1.796,1.400,3130
1.800,1.312,3130
1.804,1.052,3130
1.808,0.657,3130
1.812,0.172,3130
1.816,-0.338,3130
1.820,-0.858,3105
1.824,-1.365,3105
1.828,-1.740,3105
1.832,-1.978,3105
1.836,-2.060,3105
1.840,-1.633,3105
1.844,-1.300,3105
1.848,-0.825,3105
1.852,-0.328,3105
1.856,0.188,3124
1.860,0.665,3124
1.864,1.052,3124
1.868,1.298,3124
1.872,1.383,3124
1.876,1.298,3124
1.880,1.022,3124
1.884,0.620,3124
1.888,0.145,3124
1.892,-0.352,3124
1.896,-0.868,3124
1.900,-1.353,3123
1.904,-1.742,3123
1.908,-1.978,3123
1.912,-2.047,3123
1.916,-1.960,3123
1.920,-1.228,3123
1.924,-0.830,3123
1.928,-0.333,3123
1.932,0.190,3123
1.936,0.672,3117
1.940,1.073,3117
1.944,1.317,3117
1.948,1.390,3117
1.952,1.298,3117
1.956,1.020,3117
1.960,0.620,3117
1.964,0.147,3117
1.968,-0.347,3117
1.972,-0.865,3117
1.976,-1.347,3112
1.980,-1.738,3112
1.984,-1.962,3112
1.988,-2.033,3112
1.992,-1.942,3112
1.996,-1.677,3112
2.000,-0.623,3112
2.004,-0.175,3112
2.008,0.212,3112
2.012,0.782,3113
2.016,1.347,3113
2.020,1.420,3113
2.024,1.317,3113
2.028,1.038,3113
2.032,0.632,3113
2.036,0.158,3113
2.040,-0.347,3113
2.044,-0.873,3113
2.048,-1.373,3115
2.052,-1.772,3115
2.056,-1.992,3115
2.060,-2.083,3115
2.064,-1.978,3115
2.068,-1.728,3115
2.072,-1.323,3115
2.076,-0.843,3115
2.080,0.260,3099
2.084,1.093,3099
2.088,1.327,3099
2.092,1.383,3099
2.096,1.262,3099
2.100,1.028,3099
2.104,0.618,3099
2.108,0.147,3099
2.112,-0.375,3099
2.116,-0.882,3099
2.120,-1.357,3106
2.124,-1.762,3106
2.128,-1.978,3106
2.132,-2.053,3106
2.136,-1.965,3106
2.140,-1.698,3106
2.144,-1.298,3106
2.148,-0.823,3106
2.152,-0.328,3106
2.156,0.193,3106
2.160,1.103,3106
2.164,1.373,3106
2.168,1.255,3106
2.172,1.012,3106
2.176,0.590,3106
2.180,0.115,3106
2.184,-0.388,3106
2.188,-0.902,3106
2.192,-1.377,3110
2.196,-1.768,3110
2.200,-1.982,3110
2.204,-2.055,3110
2.208,-1.965,3110
2.212,-1.698,3110
2.216,-1.308,3110
2.220,-0.820,3110
2.224,-0.307,3110
2.228,0.212,3110
2.232,0.700,3120
2.236,1.075,3120
2.240,1.377,3120
2.244,1.270,3120
2.248,0.960,3120
2.252,0.610,3120
2.256,0.138,3120
2.260,-0.367,3120
2.264,-1.008,3113
2.268,-1.782,3113
2.272,-1.985,3113
2.276,-2.062,3113
2.280,-1.972,3113
2.284,-1.702,3113
2.288,-1.308,3113
2.292,-0.830,3113
2.296,-0.328,3113
2.300,0.193,3113
2.304,0.672,3113
2.308,1.077,3113
2.312,1.302,3113
2.316,1.380,3113
2.320,0.943,3113
2.324,0.595,3113
2.328,0.117,3113
2.332,-0.385,3113
2.336,-0.902,3113
2.340,-1.393,3129
2.344,-1.782,3129
2.348,-2.010,3129
2.352,-2.087,3129
2.356,-1.982,3129
2.360,-1.725,3129
2.364,-1.335,3129
2.368,-0.853,3129
2.372,-0.352,3129
2.376,0.172,3129
2.380,0.657,3108
2.384,1.048,3108
2.388,1.270,3108
2.392,1.357,3108
2.396,1.268,3108
2.400,0.550,3108
2.404,0.152,3108
2.408,-0.347,3108
2.412,-0.865,3108
2.416,-1.347,3118
2.420,-1.740,3118
2.424,-1.975,3118
2.428,-2.058,3118
2.432,-1.968,3118
2.436,-1.702,3118
2.440,-1.320,3118
2.444,-0.843,3118
2.448,-0.347,3118
2.452,0.172,3118
2.456,0.655,3137
2.460,1.052,3137
2.464,1.300,3137
2.468,1.383,3137
2.472,1.275,3137
2.476,1.018,3137
2.480,0.070,3137
2.484,-0.352,3137
2.488,-0.870,3137
2.492,-1.393,3136
2.496,-1.770,3136
2.500,-1.982,3136
2.504,-2.058,3136
2.508,-1.970,3136
2.512,-1.708,3136
2.516,-1.292,3136
2.520,-0.828,3136
2.524,-0.343,3136
2.528,0.172,3136
2.532,0.640,3142
2.536,1.032,3142
2.540,1.258,3142
2.544,1.343,3142
2.548,1.238,3142
2.552,0.988,3142
2.556,0.593,3142
2.560,-0.450,3142
2.564,-0.973,3142
2.568,-1.380,3138
2.572,-1.778,3138
2.576,-1.982,3138
2.580,-2.053,3138
2.584,-1.962,3138
2.588,-1.698,3138
2.592,-1.305,3138
2.596,-0.828,3138
2.600,-0.205,3138
2.604,0.273,3138
2.608,0.662,3118
2.612,1.058,3118
2.616,1.300,3118
2.620,1.387,3118
2.624,1.308,3118
2.628,1.028,3118
2.632,0.637,3118
2.636,0.175,3118
2.640,-0.927,3118
2.644,-1.330,3116
2.648,-1.728,3116
2.652,-1.988,3116
2.656,-2.042,3116
2.660,-1.952,3116
2.664,-1.688,3116
2.668,-1.308,3116
2.672,-0.833,3116
2.676,-0.343,3116
2.680,0.180,3116
2.684,0.662,3118
2.688,1.062,3118
2.692,1.312,3118
2.696,1.393,3118
2.700,1.308,3118
2.704,1.038,3118
2.708,0.632,3118
2.712,0.152,3118
2.716,-0.383,3118
2.720,-1.405,3121
2.724,-1.978,3121
2.728,-2.035,3121
2.732,-1.952,3121
2.736,-1.692,3121
2.740,-1.305,3121
2.744,-0.843,3121
2.748,-0.338,3121
2.752,0.177,3121
2.756,0.635,3119
2.760,1.030,3119
2.764,1.258,3119
2.768,1.350,3119
2.772,1.252,3119
2.776,1.008,3119
2.780,0.620,3119
2.784,0.147,3119
2.788,-0.347,3119
2.792,-0.863,3119
2.796,-1.353,3125
2.800,-2.018,3125
2.804,-2.083,3125
2.808,-1.985,3125
2.812,-1.728,3125
2.816,-1.340,3125
2.820,-0.858,3125
2.824,-0.362,3125
2.828,0.155,3125
2.832,0.627,3134
2.836,1.038,3134
2.840,1.268,3134
2.844,1.367,3134
2.848,1.262,3134
2.852,1.012,3134
2.856,0.618,3134
2.860,0.142,3134
2.864,-0.350,3134
2.868,-0.863,3134
2.872,-1.353,3106
2.876,-1.748,3106
2.880,-2.060,3106
2.884,-1.975,3106
2.888,-1.710,3106
2.892,-1.327,3106
2.896,-0.843,3106
2.900,-0.350,3106
2.904,0.177,3106
2.908,0.652,3106
2.912,1.048,3114
2.916,1.298,3114
2.920,1.377,3114
2.924,1.295,3114
2.928,1.028,3114
2.932,0.635,3114
2.936,0.177,3114
2.940,-0.333,3114
2.944,-0.845,3114
2.948,-1.330,3114
2.952,-1.712,3113
2.956,-1.952,3113
2.960,-1.897,3113
2.964,-1.653,3113
2.968,-1.260,3113
2.972,-0.770,3113
2.976,-0.302,3113
2.980,0.205,3113
2.984,0.693,3113
2.988,1.077,3104
2.992,1.337,3104
2.996,1.410,3104
3.000,1.323,3104
3.004,1.040,3104
3.008,0.657,3104
3.012,0.182,3104
3.016,-0.305,3104
3.020,-0.823,3104
3.024,-1.302,3104
3.028,-1.688,3119
3.032,-1.933,3119
3.036,-2.007,3119
3.040,-1.630,3119
3.044,-1.308,3119
3.048,-0.833,3119
3.052,-0.343,3119
3.056,0.172,3119
3.060,0.655,3119
3.064,1.052,3104
3.068,1.308,3104
3.072,1.383,3104
3.076,1.300,3104
3.080,1.038,3104
3.084,0.657,3104
3.088,0.193,3104
3.092,-0.320,3104
3.096,-0.828,3104
3.100,-1.312,3104
3.104,-1.708,3088
3.108,-1.948,3088
3.112,-2.027,3088
3.116,-1.948,3088
3.120,-1.235,3088
3.124,-0.853,3088
3.128,-0.355,3088
3.132,0.152,3088
3.136,0.632,3088
3.140,1.032,3112
3.144,1.270,3112
3.148,1.357,3112
3.152,1.260,3112
3.156,1.018,3112
3.160,0.627,3112
3.164,0.172,3112
3.168,-0.333,3112
3.172,-0.833,3112
3.176,-1.323,3112
3.180,-1.702,3107
3.184,-1.942,3107
3.188,-2.025,3107
3.192,-1.942,3107
3.196,-1.692,3107
3.200,-0.748,3107
3.204,-0.343,3107
3.208,0.182,3107
3.212,0.667,3107
3.216,1.067,3111
3.220,1.323,3111
3.224,1.407,3111
3.228,1.327,3111
3.232,1.060,3111
3.236,0.667,3111
3.240,0.193,3111
3.244,-0.325,3111
3.248,-0.845,3111
3.252,-1.335,3111
3.256,-1.730,3109
3.260,-1.978,3109
3.264,-2.060,3109
3.268,-1.972,3109
3.272,-1.702,3109
3.276,-1.340,3109
3.280,-0.278,3109
3.284,0.177,3109
3.288,0.632,3109
3.292,1.032,3121
3.296,1.387,3121
3.300,1.310,3121
3.304,1.058,3121
3.308,0.682,3121
3.312,0.210,3121
3.316,-0.287,3121
3.320,-0.807,3121
3.324,-1.292,3121
3.328,-1.688,3088
3.332,-1.940,3088
3.336,-2.022,3088
3.340,-1.942,3088
3.344,-1.698,3088
3.348,-1.320,3088
3.352,-0.853,3088
3.356,-0.360,3088
3.360,0.713,3088
3.364,1.035,3115
3.368,1.272,3115
3.372,1.370,3115
3.376,1.275,3115
3.380,1.032,3115
3.384,0.657,3115
3.388,0.188,3115
3.392,-0.305,3115
3.396,-0.823,3115
3.400,-1.300,3115
3.404,-1.688,3129
3.408,-1.940,3129
3.412,-2.018,3129
3.416,-1.927,3129
3.420,-1.673,3129
3.424,-1.295,3129
3.428,-0.820,3129
3.432,-0.338,3129
3.436,0.182,3129
3.440,1.097,3134
3.444,1.387,3134
3.448,1.300,3134
3.452,1.035,3134
3.456,0.637,3134
3.460,0.177,3134
3.464,-0.338,3134
3.468,-0.853,3134
3.472,-1.343,3134
3.476,-1.728,3133
3.480,-1.968,3133
3.484,-2.047,3133
3.488,-1.960,3133
3.492,-1.698,3133
3.496,-1.312,3133
3.500,-0.830,3133
3.504,-0.338,3133
3.508,0.177,3133
3.512,0.667,3133
3.516,1.062,3137
3.520,1.397,3137
3.524,1.317,3137
3.528,1.055,3137
3.532,0.667,3137
3.536,0.195,3137
3.540,-0.292,3137
3.544,-0.815,3137
3.548,-1.302,3137
3.552,-1.698,3139
3.556,-1.938,3139
3.560,-2.013,3139
3.564,-1.930,3139
3.568,-1.675,3139
3.572,-1.300,3139
3.576,-0.828,3139
3.580,-0.338,3139
3.584,0.177,3139
3.588,0.637,3139
3.592,1.052,3150
3.596,1.300,3150
3.600,1.255,3150
3.604,1.028,3150
3.608,0.632,3150
3.612,0.177,3150
3.616,-0.328,3150
3.620,-0.833,3150
3.624,-1.323,3150
3.628,-1.702,3123
3.632,-1.950,3123
3.636,-2.027,3123
3.640,-1.942,3123
3.644,-1.688,3123
3.648,-1.295,3123
3.652,-0.818,3123
3.656,-0.290,3123
3.660,0.185,3123
3.664,0.670,3123
3.668,1.058,3104
3.672,1.302,3104
3.676,1.385,3104
3.680,0.573,3104
3.684,-0.367,3104
3.688,-0.828,3104
3.692,-1.312,3104
3.696,-1.702,3095
3.700,-1.950,3095
3.704,-2.030,3095
3.708,-1.945,3095
3.712,-1.700,3095
3.716,-1.312,3095
3.720,-0.843,3095
3.724,-0.343,3095
3.728,0.170,3095
3.732,0.635,3095
3.736,1.032,3118
3.740,1.268,3118
3.744,1.357,3118
3.748,1.268,3118
3.752,1.018,3118
3.756,0.627,3118
3.760,-0.417,3118
3.764,-0.848,3118
3.768,-1.327,3118
3.772,-1.708,3119
3.776,-1.952,3119
3.780,-2.033,3119
3.784,-1.952,3119
3.788,-1.698,3119
3.792,-1.310,3119
3.796,-0.833,3119
3.800,-0.347,3119
3.804,0.158,3119
3.808,0.630,3119
3.812,1.032,3116
3.816,1.272,3116
3.820,1.375,3116
3.824,1.272,3116
3.828,1.028,3116
3.832,0.625,3116
3.836,0.172,3116
3.840,-0.912,3116
3.844,-1.323,3116
3.848,-1.708,3129
3.852,-1.955,3129
3.856,-2.042,3129
3.860,-1.960,3129
3.864,-1.708,3129
3.868,-1.325,3129
3.872,-0.848,3129
3.876,-0.352,3129
3.880,0.152,3129
3.884,0.637,3129
3.888,1.032,3125
3.892,1.292,3125
3.896,1.373,3125
3.900,1.298,3125
3.904,1.038,3125
3.908,0.657,3125
3.912,0.190,3125
3.916,-0.297,3125
3.920,-1.423,3125
3.924,-1.695,3121
3.928,-2.018,3121
3.932,-1.948,3121
3.936,-1.700,3121
3.940,-1.325,3121
3.944,-0.853,3121
3.948,-0.367,3121
3.952,0.138,3121
3.956,0.613,3121
3.960,1.012,3121
3.964,1.255,3158
3.968,1.357,3158
3.972,1.268,3158
3.976,1.032,3158
3.980,0.660,3158
3.984,0.193,3158
3.988,-0.295,3158
3.992,-0.810,3158
3.996,-1.290,3158
4.000,-1.968,3114
4.004,-1.910,3114
4.008,-1.683,3114
4.012,-1.327,3114
4.016,-0.860,3114
4.020,-0.367,3114
4.024,0.140,3114
4.028,0.627,3114
4.032,1.052,3114
4.036,1.300,3106
4.040,1.407,3106
4.044,1.330,3106
4.048,1.075,3106
4.052,0.688,3106
4.056,0.225,3106
4.060,-0.263,3106
4.064,-0.780,3106
4.068,-1.258,3106
4.072,-1.677,3106
4.076,-1.933,3125
4.080,-1.927,3125
4.084,-1.702,3125
4.088,-1.333,3125
4.092,-0.858,3125
4.096,-0.362,3125
4.100,0.150,3125
4.104,0.632,3125
4.108,1.038,3125
4.112,1.275,3109
4.116,1.387,3109
4.120,1.310,3109
4.124,1.052,3109
4.128,0.667,3109
4.132,0.198,3109
4.136,-0.295,3109
4.140,-0.812,3109
4.144,-1.288,3109
4.148,-1.683,3109
4.152,-1.927,3116
4.156,-2.007,3116
4.160,-1.625,3116
4.164,-1.302,3116
4.168,-0.843,3116
4.172,-0.362,3116
4.176,0.147,3116
4.180,0.620,3116
4.184,1.020,3116
4.188,1.260,3097
4.192,1.357,3097
4.196,1.270,3097
4.200,1.038,3097
4.204,0.660,3097
4.208,0.195,3097
4.212,-0.297,3097
4.216,-0.815,3097
4.220,-1.302,3097
4.224,-1.700,3097
4.228,-1.948,3105
4.232,-2.033,3105
4.236,-1.962,3105
4.240,-1.252,3105
4.244,-0.767,3105
4.248,-0.343,3105
4.252,0.147,3105
4.256,0.623,3105
4.260,1.028,3105
4.264,1.272,3119
4.268,1.380,3119
4.272,1.298,3119
4.276,1.038,3119
4.280,0.652,3119
4.284,0.188,3119
4.288,-0.323,3119
4.292,-0.828,3119
4.296,-1.310,3119
4.300,-1.700,3119
4.304,-1.950,3101
4.308,-2.038,3101
4.312,-1.962,3101
4.316,-1.718,3101
4.320,-0.802,3101
4.324,-0.380,3101
4.328,0.138,3101
4.332,0.625,3101
4.336,1.032,3101
4.340,1.300,3109
4.344,1.387,3109
4.348,1.312,3109
4.352,1.052,3109
4.356,0.675,3109
4.360,0.212,3109
4.364,-0.287,3109
4.368,-0.805,3109
4.372,-1.298,3109
4.376,-1.695,3109
4.380,-1.950,3127
4.384,-2.047,3127
4.388,-1.972,3127
4.392,-1.722,3127
4.396,-1.343,3127
4.400,-0.297,3127
4.404,0.233,3127
4.408,0.623,3127
4.412,1.012,3127
4.416,1.300,3129
4.420,1.383,3129
4.424,1.305,3129
4.428,1.052,3129
4.432,0.675,3129
4.436,0.212,3129
4.440,-0.302,3129
4.444,-0.785,3129
4.448,-1.258,3129
4.452,-1.663,3129
4.456,-1.927,3110
4.460,-2.018,3110
4.464,-1.948,3110
4.468,-1.712,3110
4.472,-1.337,3110
4.476,-0.880,3110
4.480,0.205,3110
4.484,0.593,3110
4.488,0.995,3110
4.492,1.248,3138
4.496,1.347,3138
4.500,1.268,3138
4.504,1.028,3138
4.508,0.632,3138
4.512,0.182,3138
4.516,-0.302,3138
4.520,-0.818,3138
4.524,-1.302,3138
4.528,-1.700,3138
4.532,-1.962,3139
4.536,-2.050,3139
4.540,-1.978,3139
4.544,-1.735,3139
4.548,-1.363,3139
4.552,-0.892,3139
4.556,-0.390,3139
4.560,0.688,3139
4.564,1.302,3132
4.568,1.387,3132
4.572,1.327,3132
4.576,1.077,3132
4.580,0.698,3132
4.584,0.233,3132
4.588,-0.253,3132
4.592,-0.767,3132
4.596,-1.250,3132
4.600,-1.657,3132
4.604,-1.903,3118
4.608,-2.013,3118
4.612,-1.948,3118
4.616,-1.710,3118
4.620,-1.345,3118
4.624,-0.882,3118
4.628,-0.393,3118
4.632,0.107,3118
4.636,0.590,3118
4.640,1.292,3142
4.644,1.298,3142
4.648,1.055,3142
4.652,0.675,3142
4.656,0.215,3142
4.660,-0.282,3142
4.664,-0.807,3142
4.668,-1.292,3142
4.672,-1.692,3142
4.676,-1.938,3115
4.680,-2.027,3115
4.684,-1.950,3115
4.688,-1.712,3115
4.692,-1.347,3115
4.696,-0.880,3115
4.700,-0.383,3115
4.704,0.130,3115
4.708,0.615,3115
4.712,1.028,3115
4.716,1.298,3143
4.720,1.312,3143
4.724,1.093,3143
4.728,0.708,3143
4.732,0.233,3143
4.736,-0.268,3143
4.740,-0.785,3143
4.744,-1.288,3143
4.748,-1.690,3143
4.752,-1.942,3136
4.756,-2.035,3136
4.760,-1.962,3136
4.764,-1.712,3136
4.768,-1.337,3136
4.772,-0.865,3136
4.776,-0.367,3136
4.780,0.147,3136
4.784,0.627,3136
4.788,1.050,3136
4.792,1.312,3127
4.796,1.397,3127
4.800,1.028,3127
4.804,0.698,3127
4.808,0.233,3127
4.812,-0.263,3127
4.816,-0.780,3127
4.820,-1.262,3127
4.824,-1.675,3127
4.828,-1.925,3114
4.832,-2.020,3114
4.836,-1.960,3114
4.840,-1.708,3114
4.844,-1.340,3114
4.848,-0.870,3114
4.852,-0.380,3114
4.856,0.142,3114
4.860,0.627,3114
4.864,1.048,3114
4.868,1.310,3130
4.872,1.397,3130
4.876,1.337,3130
4.880,0.627,3130
4.884,0.233,3130
4.888,-0.268,3130
4.892,-0.787,3130
4.896,-1.292,3130
4.900,-1.690,3130
4.904,-1.950,3124
4.908,-2.045,3124
4.912,-1.975,3124
4.916,-1.732,3124
4.920,-1.353,3124
4.924,-0.885,3124
4.928,-0.393,3124
4.932,0.117,3124
4.936,0.588,3124
4.940,1.010,3124
4.944,1.260,3122
4.948,1.373,3122
4.952,1.298,3122
4.956,1.052,3122
4.960,0.142,3122
4.964,-0.263,3122
4.968,-0.770,3122
4.972,-1.248,3122
4.976,-1.657,3122
4.980,-1.923,3122
4.984,-2.022,3124
4.988,-1.955,3124
4.992,-1.722,3124
4.996,-1.363,3124
5.000,-0.892,3124
5.004,-0.410,3124
5.008,0.102,3124
5.012,0.578,3124
5.016,0.990,3124
5.020,1.248,3124
5.024,1.357,3100
5.028,1.298,3100
5.032,1.058,3100
5.036,0.688,3100
5.040,-0.340,3100
5.044,-0.767,3100
5.048,-1.252,3100
5.052,-1.657,3100
5.056,-1.927,3100
5.060,-2.020,3116
5.064,-1.968,3116
5.068,-1.732,3116
5.072,-1.367,3116
5.076,-0.902,3116
5.080,-0.417,3116
5.084,0.098,3116
5.088,0.578,3116
5.092,0.983,3116
5.096,1.230,3116
5.100,1.343,3118
5.104,1.262,3118
5.108,1.035,3118
5.112,0.672,3118
5.116,0.217,3118
5.120,-0.882,3118
5.124,-1.298,3118
5.128,-1.695,3118
5.132,-1.952,3118
5.136,-2.058,3078
5.140,-1.988,3078
5.144,-1.748,3078
5.148,-1.377,3078
5.152,-0.902,3078
5.156,-0.407,3078
5.160,0.107,3078
5.164,0.593,3078
5.168,1.008,3078
5.172,1.262,3078
5.176,1.383,3101
5.180,1.317,3101
5.184,1.073,3101
5.188,0.703,3101
5.192,0.193,3101
5.196,-0.273,3101
5.200,-1.367,3101
5.204,-1.700,3101
5.208,-1.952,3101
5.212,-2.050,3104
5.216,-1.978,3104
5.220,-1.740,3104
5.224,-1.373,3104
5.228,-0.900,3104
5.232,-0.415,3104
5.236,0.098,3104
5.240,0.575,3104
5.244,0.980,3104
5.248,1.230,3104
5.252,1.345,3119
5.256,1.268,3119
5.260,1.048,3119
5.264,0.672,3119
5.268,0.217,3119
5.272,-0.268,3119
5.276,-0.780,3119
5.280,-1.722,3119
5.284,-1.933,3119
5.288,-2.022,3103
5.292,-1.712,3103
5.296,-1.355,3103
5.300,-0.892,3103
5.304,-0.407,3103
5.308,0.105,3103
5.312,0.588,3103
5.316,0.993,3103
5.320,1.258,3103
5.324,1.373,3120
5.328,1.300,3120
5.332,1.058,3120
5.336,0.688,3120
5.340,0.223,3120
5.344,-0.275,3120
5.348,-0.802,3120
5.352,-1.300,3120
5.356,-1.702,3120
5.360,-2.067,3128
5.364,-1.710,3128
5.368,-1.330,3128
5.372,-0.873,3128
5.376,-0.362,3128
5.380,0.130,3128
5.384,0.627,3128
5.388,0.993,3128
5.392,1.250,3128
5.396,1.373,3116
5.400,1.308,3116
5.404,1.077,3116
5.408,0.708,3116
5.412,0.253,3116
5.416,-0.242,3116
5.420,-0.762,3116
5.424,-1.248,3116
5.428,-1.667,3116
5.432,-1.948,3116
5.436,-2.053,3133
5.440,-1.702,3133
5.444,-1.387,3133
5.448,-0.922,3133
5.452,-0.422,3133
5.456,0.092,3133
5.460,0.578,3133
5.464,0.983,3133
5.468,1.238,3133
5.472,1.353,3129
5.476,1.300,3129
5.480,1.060,3129
5.484,0.695,3129
5.488,0.235,3129
5.492,-0.253,3129
5.496,-0.762,3129
5.500,-1.238,3129
5.504,-1.655,3129
5.508,-1.923,3129
5.512,-2.025,3142
5.516,-1.972,3142
5.520,-1.325,3142
5.524,-0.927,3142
5.528,-0.443,3142
5.532,0.072,3142
5.536,0.568,3142
5.540,0.985,3142
5.544,1.248,3142
5.548,1.377,3139
5.552,1.317,3139
5.556,1.077,3139
5.560,0.718,3139
5.564,0.258,3139
5.568,-0.225,3139
5.572,-0.745,3139
5.576,-1.262,3139
5.580,-1.665,3139
5.584,-1.938,3139
5.588,-2.038,3125
5.592,-1.978,3125
5.596,-1.762,3125
5.600,-0.828,3125
5.604,-0.420,3125
5.608,0.095,3125
5.612,0.578,3125
5.616,0.993,3125
5.620,1.250,3125
5.624,1.357,3139
5.628,1.298,3139
5.632,1.058,3139
5.636,0.690,3139
5.640,0.223,3139
5.644,-0.270,3139
5.648,-0.780,3139
5.652,-1.258,3139
5.656,-1.683,3139
5.660,-1.940,3139
5.664,-2.033,3119
5.668,-1.978,3119
5.672,-1.742,3119
5.676,-1.377,3119
5.680,-0.340,3119
5.684,0.092,3119
5.688,0.575,3119
5.692,0.993,3119
5.696,1.252,3119
5.700,1.377,3130
5.704,1.308,3130
5.708,1.065,3130
5.712,0.698,3130
5.716,0.233,3130
5.720,-0.263,3130
5.724,-0.780,3130
5.728,-1.258,3130
5.732,-1.673,3130
5.736,-1.933,3130
5.740,-2.035,3137
5.744,-1.978,3137
5.748,-1.765,3137
5.752,-1.390,3137
5.756,-0.927,3137
5.760,0.177,3137
5.764,0.583,3137
5.768,1.008,3137
5.772,1.268,3137
5.776,1.393,3125
5.780,1.333,3125
5.784,1.093,3125
5.788,0.713,3125
5.792,0.258,3125
5.796,-0.242,3125
5.800,-0.750,3125
5.804,-1.238,3125
5.808,-1.657,3125
5.812,-1.907,3125
5.816,-2.020,3126
5.820,-1.972,3126
5.824,-1.762,3126
5.828,-1.387,3126
5.832,-0.932,3126
5.836,-0.450,3126
5.840,0.618,3126
5.844,0.958,3126
5.848,1.230,3126
5.852,1.355,3121
5.856,1.300,3121
5.860,1.062,3121
5.864,0.698,3121
5.868,0.237,3121
5.872,-0.233,3121
5.876,-0.757,3121
5.880,-1.238,3121
5.884,-1.653,3121
5.888,-1.905,3121
5.892,-2.018,3117
5.896,-1.962,3117
5.900,-1.738,3117
5.904,-1.377,3117
5.908,-0.912,3117
5.912,-0.427,3117
5.916,0.077,3117
5.920,1.025,3117
5.924,1.230,3117
5.928,1.353,3111
5.932,1.272,3111
5.936,1.052,3111
5.940,0.688,3111
5.944,0.228,3111
5.948,-0.258,3111
5.952,-0.752,3111
5.956,-1.238,3111
5.960,-1.650,3111
5.964,-1.903,3111
5.968,-2.002,3111
5.972,-1.942,3126
5.976,-1.702,3126
5.980,-1.345,3126
5.984,-0.892,3126
5.988,-0.417,3126
5.992,0.087,3126
5.996,0.557,3126
6.000,1.258,3126
6.004,1.353,3126
6.008,1.298,3118
6.012,1.052,3118
6.016,0.695,3118
6.020,0.235,3118
6.024,-0.247,3118
6.028,-0.745,3118
6.032,-1.222,3118
6.036,-1.630,3118
6.040,-1.883,3118
6.044,-1.988,3118
6.048,-1.938,3131
6.052,-1.700,3131
6.056,-1.347,3131
6.060,-0.882,3131
6.064,-0.390,3131
6.068,0.107,3131
6.072,0.590,3131
6.076,1.008,3131
6.080,1.397,3108
6.084,1.100,3108
6.088,0.738,3108
6.092,0.273,3108
6.096,-0.212,3108
6.100,-0.728,3108
6.104,-1.218,3108
6.108,-1.633,3108
6.112,-1.893,3108
6.116,-2.002,3108
6.120,-1.950,3116
6.124,-1.722,3116
6.128,-1.370,3116
6.132,-0.912,3116
6.136,-0.422,3116
6.140,0.092,3116
6.144,0.573,3116
6.148,0.995,3116
6.152,1.260,3116
6.156,1.387,3116
6.160,1.028,3117
6.164,0.212,3117
6.168,-0.228,3117
6.172,-0.745,3117
6.176,-1.228,3117
6.180,-1.653,3117
6.184,-1.903,3117
6.188,-2.025,3117
6.192,-1.975,3102
6.196,-1.748,3102
6.200,-1.387,3102
6.204,-0.932,3102
6.208,-0.443,3102
6.212,0.068,3102
6.216,0.547,3102
6.220,0.975,3102
6.224,1.238,3102
6.228,1.370,3102
6.232,1.327,3111
6.236,1.077,3111
6.240,0.177,3111
6.244,-0.273,3111
6.248,-0.743,3111
6.252,-1.222,3111
6.256,-1.645,3111
6.260,-1.907,3111
6.264,-2.025,3111
6.268,-1.978,3119
6.272,-1.745,3119
6.276,-1.390,3119
6.280,-0.932,3119
6.284,-0.443,3119
6.288,0.068,3119
6.292,0.542,3119
6.296,0.958,3119
6.300,1.230,3119
6.304,1.350,3119
6.308,1.302,3115
6.312,1.062,3115
6.316,0.705,3115
6.320,-0.328,3115
6.324,-0.843,3115
6.328,-1.343,3115
6.332,-1.692,3115
6.336,-1.933,3115
6.340,-2.033,3115
6.344,-1.972,3113
6.348,-1.728,3113
6.352,-1.387,3113
6.356,-0.932,3113
6.360,-0.443,3113
6.364,0.062,3113
6.368,0.583,3113
6.372,0.958,3113
6.376,1.222,3113
6.380,1.350,3113
6.384,1.300,3063
6.388,1.058,3063
6.392,0.710,3063
6.396,0.253,3063
6.400,-0.843,3063
6.404,-1.228,3063
6.408,-1.653,3063
6.412,-1.907,3063
6.416,-2.027,3063
6.420,-1.978,3115
6.424,-1.748,3115
6.428,-1.390,3115
6.432,-0.938,3115
6.436,-0.453,3115
6.440,0.058,3115
6.444,0.532,3115
6.448,0.943,3115
6.452,1.228,3115
6.456,1.343,3115
6.460,1.298,3109
6.464,1.052,3109
6.468,0.688,3109
6.472,0.228,3109
6.476,-0.263,3109
6.480,-1.347,3109
6.484,-1.975,3109
6.488,-2.047,3109
6.492,-1.988,3124
6.496,-1.765,3124
6.500,-1.393,3124
6.504,-0.940,3124
6.508,-0.453,3124
6.512,0.055,3124
6.516,0.535,3124
6.520,0.945,3124
6.524,1.220,3124
6.528,1.353,3124
6.532,1.312,3124
6.536,1.075,3124
6.540,0.708,3124
6.544,0.258,3124
6.548,-0.230,3124
6.552,-0.743,3124
6.556,-1.228,3124
6.560,-1.950,3124
6.564,-2.030,3124
6.568,-1.982,3130
6.572,-1.772,3130
6.576,-1.417,3130
6.580,-0.973,3130
6.584,-0.468,3130
6.588,0.030,3130
6.592,0.527,3130
6.596,0.943,3130
6.600,1.228,3130
6.604,1.360,3130
6.608,1.317,3144
6.612,1.080,3144
6.616,0.735,3144
6.620,0.278,3144
6.624,-0.210,3144
6.628,-0.713,3144
6.632,-1.208,3144
6.636,-1.627,3144
6.640,-2.027,3144
6.644,-1.972,3127
6.648,-1.738,3127
6.652,-1.380,3127
6.656,-0.922,3127
6.660,-0.432,3127
6.664,0.070,3127
6.668,0.547,3127
6.672,0.948,3127
6.676,1.218,3127
6.680,1.343,3127
6.684,1.270,3117
6.688,1.038,3117
6.692,0.693,3117
6.696,0.237,3117
6.700,-0.247,3117
6.704,-0.770,3117
6.708,-1.250,3117
6.712,-1.673,3117
6.716,-1.948,3117
6.720,-1.978,3141
6.724,-1.407,3141
6.728,-0.922,3141
6.732,-0.463,3141
6.736,0.050,3141
6.740,0.532,3141
6.744,0.943,3141
6.748,1.228,3141
6.752,1.357,3141
6.756,1.317,3129
6.760,1.077,3129
6.764,0.718,3129
6.768,0.265,3129
6.772,-0.223,3129
6.776,-0.733,3129
6.780,-1.212,3129
6.784,-1.645,3129
6.788,-1.903,3129
6.792,-2.018,3129
6.796,-1.970,3126
6.800,-1.308,3126
6.804,-0.932,3126
6.808,-0.453,3126
6.812,0.058,3126
6.816,0.542,3126
6.820,0.953,3126
6.824,1.222,3126
6.828,1.345,3126
6.832,1.298,3113
6.836,1.052,3113
6.840,0.693,3113
6.844,0.245,3113
6.848,-0.250,3113
6.852,-0.752,3113
6.856,-1.248,3113
6.860,-1.665,3113
6.864,-1.938,3113
6.868,-2.047,3113
6.872,-2.002,3121
6.876,-1.788,3121
6.880,-0.892,3121
6.884,-0.490,3121
6.888,0.028,3121
6.892,0.507,3121
6.896,0.920,3121
6.900,1.198,3121
6.904,1.335,3121
6.908,1.270,3110
6.912,1.050,3110
6.916,0.700,3110
6.920,0.258,3110
6.924,-0.230,3110
6.928,-0.738,3110
6.932,-1.222,3110
6.936,-1.647,3110
6.940,-1.907,3110
6.944,-2.027,3110
6.948,-1.988,3136
6.952,-1.778,3136
6.956,-1.420,3136
6.960,-0.395,3136
6.964,0.022,3136
6.968,0.525,3136
6.972,0.940,3136
6.976,1.222,3136
6.980,1.350,3136
6.984,1.325,3136
6.988,1.093,3109
6.992,0.728,3109
6.996,0.287,3109
7.000,-0.205,3109
7.004,-0.713,3109
7.008,-1.202,3109
7.012,-1.627,3109
7.016,-1.897,3109
7.020,-2.020,3109
7.024,-1.972,3109
7.028,-1.772,3121
7.032,-1.407,3121
7.036,-0.973,3121
7.040,0.105,3121
7.044,0.522,3121
7.048,0.948,3121
7.052,1.220,3121
7.056,1.357,3121
7.060,1.323,3121
7.064,1.097,3122
7.068,0.720,3122
7.072,0.278,3122
7.076,-0.203,3122
7.080,-0.715,3122
7.084,-1.212,3122
7.088,-1.643,3122
7.092,-1.927,3122
7.096,-2.042,3122
7.100,-2.010,3122
7.104,-1.790,3105
7.108,-1.427,3105
7.112,-0.990,3105
7.116,-0.502,3105
7.120,0.588,3105
7.124,0.938,3105
7.128,1.220,3105
7.132,1.353,3105
7.136,1.327,3105
7.140,1.093,3112
7.144,0.730,3112
7.148,0.278,3112
7.152,-0.207,3112
7.156,-0.708,3112
7.160,-1.205,3112
7.164,-1.627,3112
7.168,-1.903,3112
7.172,-2.027,3112
7.176,-1.992,3112
7.180,-1.788,3115
7.184,-1.420,3115
7.188,-0.978,3115
7.192,-0.492,3115
7.196,0.033,3115
7.200,0.993,3115
7.204,1.218,3115
7.208,1.343,3115
7.212,1.305,3115
7.216,1.077,3075
7.220,0.710,3075
7.224,0.268,3075
7.228,-0.217,3075
7.232,-0.728,3075
7.236,-1.208,3075
7.240,-1.643,3075
7.244,-1.903,3075
7.248,-2.025,3075
7.252,-1.988,3075
7.256,-1.775,3100
7.260,-1.417,3100
7.264,-0.973,3100
7.268,-0.492,3100
7.272,0.020,3100
7.276,0.500,3100
7.280,1.258,3100
7.284,1.353,3100
7.288,1.312,3100
7.292,1.100,3113
7.296,0.738,3113
7.300,0.292,3113
7.304,-0.188,3113
7.308,-0.695,3113
7.312,-1.183,3113
7.316,-1.613,3113
7.320,-1.887,3113
7.324,-2.013,3113
7.328,-1.982,3113
7.332,-1.782,3116
7.336,-1.427,3116
7.340,-0.983,3116
7.344,-0.505,3116
7.348,-0.010,3116
7.352,0.500,3116
7.356,0.915,3116
7.360,1.340,3116
7.364,1.302,3116
7.368,1.077,3114
7.372,0.718,3114
7.376,0.270,3114
7.380,-0.217,3114
7.384,-0.733,3114
7.388,-1.222,3114
7.392,-1.657,3114
7.396,-1.938,3114
7.400,-2.047,3114
7.404,-2.007,3114
7.408,-1.792,3091
7.412,-1.442,3091
7.416,-0.985,3091
7.420,-0.500,3091
7.424,0.018,3091
7.428,0.497,3091
7.432,0.920,3091
7.436,1.220,3091
7.440,1.312,3091
7.444,1.113,3120
7.448,0.752,3120
7.452,0.307,3120
7.456,-0.177,3120
7.460,-0.685,3120
7.464,-1.165,3120
7.468,-1.585,3120
7.472,-1.867,3120
7.476,-1.995,3120
7.480,-1.970,3120
7.484,-1.772,3104
7.488,-1.420,3104
7.492,-0.985,3104
7.496,-0.520,3104
7.500,-0.013,3104
7.504,0.468,3104
7.508,0.892,3104
7.512,1.188,3104
7.516,1.323,3104
7.520,1.025,3121
7.524,0.287,3121
7.528,-0.770,3121
7.532,-1.167,3121
7.536,-1.587,3121
7.540,-1.867,3121
7.544,-1.990,3121
7.548,-1.968,3121
7.552,-1.762,3133
7.556,-1.397,3133
7.560,-0.948,3133
7.564,-0.482,3133
7.568,0.043,3133
7.572,0.525,3133
7.576,0.948,3133
7.580,1.232,3133
7.584,1.375,3133
7.588,1.347,3133
7.592,1.110,3118
7.596,0.748,3118
7.600,-0.268,3118
7.604,-0.703,3118
7.608,-1.192,3118
7.612,-1.630,3118
7.616,-1.903,3118
7.620,-2.033,3118
7.624,-1.992,3118
7.628,-1.785,3131
7.632,-1.420,3131
7.636,-0.980,3131
7.640,-0.492,3131
7.644,0.028,3131
7.648,0.512,3131
7.652,0.927,3131
7.656,1.208,3131
7.660,1.340,3131
7.664,1.308,3131
7.668,1.090,3115
7.672,0.733,3115
7.676,0.292,3115
7.680,-0.777,3115
7.684,-1.180,3115
7.688,-1.607,3115
7.692,-1.887,3115
7.696,-2.013,3115
7.700,-1.988,3115
7.704,-1.785,3136
7.708,-1.442,3136
7.712,-0.985,3136
7.716,-0.507,3136
7.720,0.020,3136
7.724,0.510,3136
7.728,0.932,3136
7.732,1.218,3136
7.736,1.353,3136
7.740,1.323,3136
7.744,1.103,3128
7.748,0.738,3128
7.752,0.297,3128
7.756,-0.185,3128
7.760,-1.252,3128
7.764,-1.607,3128
7.768,-1.873,3128
7.772,-2.002,3128
7.776,-1.962,3128
7.780,-1.748,3127
7.784,-1.390,3127
7.788,-0.948,3127
7.792,-0.458,3127
7.796,0.052,3127
7.800,0.537,3127
7.804,0.948,3127
7.808,1.232,3127
7.812,1.370,3127
7.816,1.333,3127
7.820,1.107,3119
7.824,0.743,3119
7.828,0.302,3119
7.832,-0.177,3119
7.836,-0.693,3119
7.840,-1.650,3119
7.844,-1.887,3119
7.848,-2.010,3119
7.852,-1.978,3119
7.856,-1.780,3080
7.860,-1.420,3080
7.864,-0.988,3080
7.868,-0.497,3080
7.872,0.022,3080
7.876,0.525,3080
7.880,0.940,3080
7.884,1.230,3080
7.888,1.373,3080
7.892,1.327,3080
7.896,1.107,3114
7.900,0.748,3114
7.904,0.297,3114
7.908,-0.182,3114
7.912,-0.693,3114
7.916,-1.192,3114
7.920,-1.923,3114
7.924,-2.013,3114
7.928,-1.978,3114
7.932,-1.778,3126
7.936,-1.417,3126
7.940,-0.978,3126
7.944,-0.502,3126
7.948,0.018,3126
7.952,0.497,3126
7.956,0.925,3126
7.960,1.218,3126
7.964,1.355,3126
7.968,1.327,3126
7.972,1.103,3114
7.976,0.745,3114
7.980,0.302,3114
7.984,-0.193,3114
7.988,-0.693,3114
7.992,-1.185,3114
7.996,-1.613,3114
8.000,-2.022,3114
8.004,-1.948,3114
8.008,-1.778,3120
8.012,-1.445,3120
8.016,-0.985,3120
8.020,-0.502,3120
8.024,0.015,3120
8.028,0.507,3120
8.032,0.938,3120
8.036,1.230,3120
8.040,1.380,3120
8.044,1.357,3120
8.048,1.153,3120
8.052,0.797,3133
8.056,0.347,3133
8.060,-0.138,3133
8.064,-0.652,3133
8.068,-1.143,3133
8.072,-1.580,3133
8.076,-1.867,3133
8.080,-1.948,3133
8.084,-1.772,3133
8.088,-1.423,3116
8.092,-0.965,3116
8.096,-0.492,3116
8.100,0.020,3116
8.104,0.502,3116
8.108,0.930,3116
8.112,1.218,3116
8.116,1.353,3116
8.120,1.327,3116
8.124,1.103,3116
8.128,0.752,3084
8.132,0.295,3084
8.136,-0.182,3084
8.140,-0.690,3084
8.144,-1.173,3084
8.148,-1.613,3084
8.152,-1.875,3084
8.156,-2.005,3084
8.160,-1.722,3109
8.164,-0.943,3109
8.168,-0.527,3109
8.172,0.107,3109
8.176,0.507,3109
8.180,0.897,3109
8.184,1.183,3109
8.188,1.333,3109
8.192,1.302,3109
8.196,1.093,3109
8.200,0.743,3115
8.204,0.297,3115
8.208,-0.177,3115
8.212,-0.672,3115
8.216,-1.153,3115
8.220,-1.577,3115
8.224,-1.865,3115
8.228,-2.002,3115
8.232,-1.978,3115
8.236,-1.785,3115
8.240,-0.902,3086
8.244,0.188,3086
8.248,0.532,3086
8.252,0.958,3086
8.256,1.220,3086
8.260,1.387,3086
8.264,1.347,3086
8.268,1.143,3086
8.272,0.787,3096
8.276,0.307,3096
8.280,-0.163,3096
8.284,-0.660,3096
8.288,-1.150,3096
8.292,-1.577,3096
8.296,-1.887,3096
8.300,-2.010,3096
8.304,-1.985,3096
8.308,-1.802,3096
8.312,-1.452,3117
8.316,-1.000,3117
8.320,0.068,3117
8.324,0.465,3117
8.328,0.892,3117
8.332,1.188,3117
8.336,1.335,3117
8.340,1.308,3117
8.344,1.100,3117
8.348,0.757,3099
8.352,0.307,3099
8.356,-0.165,3099
8.360,-0.667,3099
8.364,-1.163,3099
8.368,-1.583,3099
8.372,-1.877,3099
8.376,-2.022,3099
8.380,-2.007,3099
8.384,-1.817,3099
8.388,-1.472,3104
8.392,-1.020,3104
8.396,-0.540,3104
8.400,0.547,3104
8.404,0.907,3104
8.408,1.198,3104
8.412,1.347,3104
8.416,1.330,3104
8.420,1.115,3104
8.424,0.777,3112
8.428,0.338,3112
8.432,-0.142,3112
8.436,-0.662,3112
8.440,-1.153,3112
8.444,-1.583,3112
8.448,-1.873,3112
8.452,-2.013,3112
8.456,-1.988,3112
8.460,-1.792,3112
8.464,-1.455,3121
8.468,-0.993,3121
8.472,-0.512,3121
8.476,-0.015,3121
8.480,0.960,3121
8.484,1.212,3121
8.488,1.347,3121
8.492,1.333,3121
8.496,1.107,3121
8.500,0.772,3129
8.504,0.315,3129
8.508,-0.163,3129
8.512,-0.662,3129
8.516,-1.147,3129
8.520,-1.575,3129
8.524,-1.867,3129
8.528,-2.010,3129
8.532,-1.978,3129
8.536,-1.785,3129
8.540,-1.448,3117
8.544,-0.993,3117
8.548,-0.525,3117
8.552,-0.028,3117
8.556,0.463,3117
8.560,1.222,3117
8.564,1.343,3117
8.568,1.325,3117
8.572,1.117,3117
8.576,0.777,3119
8.580,0.333,3119
8.584,-0.145,3119
8.588,-0.652,3119
8.592,-1.145,3119
8.596,-1.577,3119
8.600,-1.873,3119
8.604,-2.015,3119
8.608,-1.990,3119
8.612,-1.792,3119
8.616,-1.452,3123
8.620,-0.993,3123
8.624,-0.522,3123
8.628,-0.018,3123
8.632,0.475,3123
8.636,0.910,3123
8.640,1.380,3123
8.644,1.272,3123
8.648,1.103,3123
8.652,0.743,3125
8.656,0.318,3125
8.660,-0.170,3125
8.664,-0.688,3125
8.668,-1.173,3125
8.672,-1.605,3125
8.676,-1.887,3125
8.680,-2.020,3125
8.684,-2.002,3125
8.688,-1.788,3125
8.692,-1.448,3115
8.696,-0.983,3115
8.700,-0.495,3115
8.704,0.022,3115
8.708,0.507,3115
8.712,0.940,3115
8.716,1.238,3115
8.720,1.340,3115
8.724,1.155,3115
8.728,0.823,3138
8.732,0.375,3138
8.736,-0.095,3138
8.740,-0.598,3138
8.744,-1.093,3138
8.748,-1.528,3138
8.752,-1.820,3138
8.756,-1.968,3138
8.760,-1.952,3138
8.764,-1.772,3138
8.768,-1.423,3116
8.772,-0.993,3116
8.776,-0.530,3116
8.780,-0.022,3116
8.784,0.472,3116
8.788,0.912,3116
8.792,1.208,3116
8.796,1.353,3116
8.800,1.087,3116
8.804,0.777,3134
8.808,0.315,3134
8.812,-0.163,3134
8.816,-0.672,3134
8.820,-1.167,3134
8.824,-1.613,3134
8.828,-1.893,3134
8.832,-2.022,3134
8.836,-2.007,3134
8.840,-1.805,3134
8.844,-1.462,3125
8.848,-1.012,3125
8.852,-0.535,3125
8.856,-0.028,3125
8.860,0.460,3125
8.864,0.897,3125
8.868,1.183,3125
8.872,1.337,3125
8.876,1.312,3125
8.880,0.703,3118
8.884,-0.163,3118
8.888,-0.662,3118
8.892,-1.147,3118
8.896,-1.575,3118
8.900,-1.863,3118
8.904,-2.005,3118
8.908,-1.972,3118
8.912,-1.772,3118
8.916,-1.417,3119
8.920,-0.973,3119
8.924,-0.492,3119
8.928,0.020,3119
8.932,0.507,3119
8.936,0.917,3119
8.940,1.212,3119
8.944,1.357,3119
8.948,1.340,3119
8.952,1.137,3119
8.956,0.780,3132
8.960,-0.253,3132
8.964,-0.682,3132
8.968,-1.165,3132
8.972,-1.603,3132
8.976,-1.883,3132
8.980,-2.013,3132
8.984,-1.988,3132
8.988,-1.790,3132
8.992,-1.448,3114
8.996,-0.988,3114
9.000,-0.512,3114
9.004,-0.007,3114
9.008,0.477,3114
9.012,0.910,3114
9.016,1.212,3114
9.020,1.353,3114
9.024,1.340,3114
9.028,1.150,3114
9.032,0.812,3129
9.036,0.367,3129
9.040,-0.708,3129
9.044,-1.123,3129
9.048,-1.583,3129
9.052,-1.863,3129
9.056,-2.022,3129
9.060,-2.005,3129
9.064,-1.815,3129
9.068,-1.488,3129
9.072,-1.028,3130
9.076,-0.552,3130
9.080,-0.068,3130
9.084,0.427,3130
9.088,0.873,3130
9.092,1.177,3130
9.096,1.343,3130
9.100,1.337,3130
9.104,1.147,3130
9.108,0.797,3130
9.112,0.357,3110
9.116,-0.142,3110
9.120,-1.228,3110
9.124,-1.673,3110
9.128,-1.890,3110
9.132,-2.020,3110
9.136,-2.007,3110
9.140,-1.812,3110
9.144,-1.468,3110
9.148,-1.022,3114
9.152,-0.532,3114
9.156,-0.048,3114
9.160,0.448,3114
9.164,0.868,3114
9.168,1.167,3114
9.172,1.327,3114
9.176,1.310,3114
9.180,1.113,3114
9.184,0.777,3114
9.188,0.338,3132
9.192,-0.163,3132
9.196,-0.655,3132
9.200,-1.643,3132
9.204,-2.018,3132
9.208,-1.985,3132
9.212,-1.792,3132
9.216,-1.458,3132
9.220,-1.010,3118
9.224,-0.522,3118
9.228,-0.022,3118
9.232,0.468,3118
9.236,0.897,3118
9.240,1.192,3118
9.244,1.347,3118
9.248,1.327,3118
9.252,1.135,3118
9.256,0.785,3118
9.260,0.347,3109
9.264,-0.138,3109
9.268,-0.650,3109
9.272,-1.137,3109
9.276,-1.580,3109
9.280,-2.033,3109
9.284,-2.007,3109
9.288,-1.812,3109
9.292,-1.480,3109
9.296,-1.028,3098
9.300,-0.537,3098
9.304,-0.052,3098
9.308,0.438,3098
9.312,0.882,3098
9.316,1.188,3098
9.320,1.340,3098
9.324,1.330,3098
9.328,1.133,3098
9.332,0.782,3098
9.336,0.347,3109
9.340,-0.138,3109
9.344,-0.642,3109
9.348,-1.125,3109
9.352,-1.565,3109
9.356,-1.863,3109
9.360,-1.972,3109
9.364,-1.808,3109
9.368,-1.465,3109
9.372,-1.022,3121
9.376,-0.527,3121
9.380,-0.033,3121
9.384,0.468,3121
9.388,0.917,3121
9.392,1.222,3121
9.396,1.380,3121
9.400,1.357,3121
9.404,1.165,3121
9.408,0.818,3121
9.412,0.367,3112
9.416,-0.135,3112
9.420,-0.640,3112
9.424,-1.137,3112
9.428,-1.570,3112
9.432,-1.880,3112
9.436,-2.022,3112
9.440,-1.802,3112
9.444,-1.515,3112
9.448,-1.073,3123
9.452,-0.580,3123
9.456,-0.092,3123
9.460,0.427,3123
9.464,0.863,3123
9.468,1.170,3123
9.472,1.327,3123
9.476,1.323,3123
9.480,1.113,3123
9.484,0.780,3123
9.488,0.345,3125
9.492,-0.145,3125
9.496,-0.647,3125
9.500,-1.133,3125
9.504,-1.567,3125
9.508,-1.863,3125
9.512,-2.007,3125
9.516,-1.992,3125
9.520,-1.395,3125
9.524,-1.022,3120
9.528,-0.537,3120
9.532,-0.048,3120
9.536,0.453,3120
9.540,0.902,3120
9.544,1.212,3120
9.548,1.357,3120
9.552,1.357,3120
9.556,1.157,3120
9.560,0.812,3120
9.564,0.365,3111
9.568,-0.128,3111
9.572,-0.627,3111
9.576,-1.127,3111
9.580,-1.558,3111
9.584,-1.863,3111
9.588,-2.020,3111
9.592,-2.007,3111
9.596,-1.823,3111
9.600,-0.983,3122
9.604,-0.070,3122
9.608,0.430,3122
9.612,0.873,3122
9.616,1.185,3122
9.620,1.347,3122
9.624,1.337,3122
9.628,1.153,3122
9.632,0.823,3122
9.636,0.388,3113
9.640,-0.100,3113
9.644,-0.608,3113
9.648,-1.097,3113
9.652,-1.538,3113
9.656,-1.833,3113
9.660,-1.985,3113
9.664,-1.972,3113
9.668,-1.788,3113
9.672,-1.468,3113
9.676,-1.028,3151
9.680,0.043,3151
9.684,0.435,3151
9.688,0.873,3151
9.692,1.180,3151
9.696,1.335,3151
9.700,1.330,3151
9.704,1.137,3151
9.708,0.797,3151
9.712,0.367,3130
9.716,-0.130,3130
9.720,-0.620,3130
9.724,-1.105,3130
9.728,-1.542,3130
9.732,-1.845,3130
9.736,-1.985,3130
9.740,-1.978,3130
9.744,-1.792,3130
9.748,-1.468,3130
9.752,-1.028,3117
9.756,-0.540,3117
9.760,0.507,3117
9.764,0.938,3117
9.768,1.173,3117
9.772,1.330,3117
9.776,1.327,3117
9.780,1.137,3117
9.784,0.797,3117
9.788,0.372,3142
9.792,-0.128,3142
9.796,-0.613,3142
9.800,-1.100,3142
9.804,-1.538,3142
9.808,-1.845,3142
9.812,-1.982,3142
9.816,-1.978,3142
9.820,-1.790,3142
9.824,-1.425,3142
9.828,-1.018,3127
9.832,-0.540,3127
9.836,-0.043,3127
9.840,0.943,3127
9.844,1.208,3127
9.848,1.347,3127
9.852,1.340,3127
9.856,1.145,3127
9.860,0.797,3127
9.864,0.367,3135
9.868,-0.138,3135
9.872,-0.642,3135
9.876,-1.133,3135
9.880,-1.567,3135
9.884,-1.863,3135
9.888,-2.010,3135
9.892,-1.992,3135
9.896,-1.817,3135
9.900,-1.488,3135
9.904,-1.048,3120
9.908,-0.562,3120
9.912,-0.070,3120
9.916,0.427,3120
9.920,1.208,3120
9.924,1.333,3120
9.928,1.333,3120
9.932,1.137,3120
9.936,0.797,3120
9.940,0.378,3110
9.944,-0.122,3110
9.948,-0.620,3110
9.952,-1.113,3110
9.956,-1.565,3110
9.960,-1.860,3110
9.964,-2.013,3110
9.968,-2.007,3110
9.972,-1.825,3110
9.976,-1.488,3110
9.980,-1.035,3124
9.984,-0.542,3124
9.988,-0.045,3124
9.992,0.458,3124
9.996,0.897,3124
10.000,1.377,3124
10.004,1.353,3124
10.008,1.165,3124
10.012,0.833,3124
10.016,0.388,3130
10.020,-0.113,3130
10.024,-0.618,3130
10.028,-1.127,3130
10.032,-1.562,3130
10.036,-1.873,3130
10.040,-2.022,3130
10.044,-2.018,3130
10.048,-1.843,3130
10.052,-1.510,3130
10.056,-1.067,3095
10.060,-0.580,3095
10.064,-0.087,3095
10.068,0.420,3095
10.072,0.868,3095
10.076,1.183,3095
10.080,1.337,3095
10.084,1.170,3095
10.088,0.843,3095
10.092,0.393,3095
10.096,-0.098,3127
10.100,-0.618,3127
10.104,-1.103,3127
10.108,-1.542,3127
10.112,-1.850,3127
10.116,-2.007,3127
10.120,-2.002,3127
10.124,-1.823,3127
10.128,-1.502,3127
10.132,-1.060,3127
10.136,-0.580,3118
10.140,-0.072,3118
10.144,0.412,3118
10.148,0.858,3118
10.152,1.177,3118
10.156,1.347,3118
10.160,1.115,3118
10.164,0.848,3118
10.168,0.398,3118
10.172,-0.075,3111
10.176,-0.583,3111
10.180,-1.060,3111
10.184,-1.508,3111
10.188,-1.820,3111
10.192,-1.970,3111
10.196,-1.980,3111
10.200,-1.808,3111
10.204,-1.475,3111
10.208,-1.035,3111
10.212,-0.547,3106
10.216,-0.022,3106
10.220,0.438,3106
10.224,0.885,3106
10.228,1.188,3106
10.232,1.353,3106
10.236,1.337,3106
10.240,0.708,3106
10.244,0.380,3106
10.248,-0.107,3108
10.252,-0.623,3108
10.256,-1.100,3108
10.260,-1.542,3108
10.264,-1.853,3108
10.268,-1.998,3108
10.272,-1.992,3108
10.276,-1.820,3108
10.280,-1.490,3108
10.284,-1.058,3108
10.288,-0.578,3106
10.292,-0.068,3106
10.296,0.417,3106
10.300,0.858,3106
10.304,1.183,3106
10.308,1.347,3106
10.312,1.347,3106
10.316,1.163,3106
10.320,0.312,3109
10.324,-0.590,3109
10.328,-1.085,3109
10.332,-1.520,3109
10.336,-1.827,3109
10.340,-1.978,3109
10.344,-1.982,3109
10.348,-1.808,3109
10.352,-1.488,3109
10.356,-1.048,3109
10.360,-0.568,3127
10.364,-0.068,3127
10.368,0.420,3127
10.372,0.863,3127
10.376,1.180,3127
10.380,1.347,3127
10.384,1.340,3127
10.388,1.150,3127
10.392,0.818,3127
10.396,0.383,3127
10.400,-0.698,3126
10.404,-1.562,3126
10.408,-1.873,3126
10.412,-2.022,3126
10.416,-2.020,3126
10.420,-1.827,3126
10.424,-1.505,3126
10.428,-1.062,3126
10.432,-0.583,3099
10.436,-0.070,3099
10.440,0.422,3099
10.444,0.873,3099
10.448,1.183,3099
10.452,1.350,3099
10.456,1.353,3099
10.460,1.173,3099
10.464,0.848,3099
10.468,0.398,3099
10.472,-0.087,3114
10.476,-0.593,3114
10.480,-1.643,3114
10.484,-1.847,3114
10.488,-1.992,3114
10.492,-1.992,3114
10.496,-1.820,3114
10.500,-1.498,3114
10.504,-1.065,3114
10.508,-0.580,3119
10.512,-0.065,3119
10.516,0.427,3119
10.520,0.873,3119
10.524,1.198,3119
10.528,1.370,3119
10.532,1.377,3119
10.536,1.198,3119
10.540,0.868,3119
10.544,0.427,3119
10.548,-0.048,3120
10.552,-0.578,3120
10.556,-1.067,3120
10.560,-1.863,3120
10.564,-2.007,3120
10.568,-1.980,3120
10.572,-1.802,3120
10.576,-1.468,3120
10.580,-1.010,3120
10.584,-0.573,3131
10.588,-0.065,3131
10.592,0.435,3131
10.596,0.887,3131
10.600,1.208,3131
10.604,1.367,3131
10.608,1.357,3131
10.612,1.173,3131
10.616,0.825,3131
10.620,0.378,3131
10.624,-0.110,3117
10.628,-0.620,3117
10.632,-1.133,3117
10.636,-1.570,3117
10.640,-2.033,3117
10.644,-2.022,3117
10.648,-1.847,3117
10.652,-1.512,3117
10.656,-1.067,3117
10.660,-0.578,3132
10.664,-0.052,3132
10.668,0.438,3132
10.672,0.900,3132
10.676,1.212,3132
10.680,1.373,3132
10.684,1.377,3132
10.688,1.190,3132
10.692,0.863,3132
10.696,0.427,3132
10.700,-0.062,3130
10.704,-0.580,3130
10.708,-1.067,3130
10.712,-1.502,3130
10.716,-1.817,3130
10.720,-1.952,3130
10.724,-1.808,3130
10.728,-1.488,3130
10.732,-1.058,3130
10.736,-0.578,3124
10.740,-0.090,3124
10.744,0.398,3124
10.748,0.848,3124
10.752,1.173,3124
10.756,1.337,3124
10.760,1.343,3124
10.764,1.163,3124
10.768,0.838,3124
10.772,0.407,3124
10.776,-0.072,3127
10.780,-0.588,3127
10.784,-1.077,3127
10.788,-1.532,3127
10.792,-1.857,3127
10.796,-2.018,3127
10.800,-1.805,3127
10.804,-1.535,3127
10.808,-1.103,3127
10.812,-0.613,3109
10.816,-0.113,3109
10.820,0.375,3109
10.824,0.823,3109
10.828,1.143,3109
10.832,1.312,3109
10.836,1.323,3109
10.840,1.135,3109
10.844,0.797,3109
10.848,0.380,3109
10.852,-0.098,3140
10.856,-0.605,3140
10.860,-1.077,3140
10.864,-1.510,3140
10.868,-1.827,3140
10.872,-1.982,3140
10.876,-1.982,3140
10.880,-1.423,3140
10.884,-1.055,3140
10.888,-0.578,3133
10.892,-0.065,3133
10.896,0.422,3133
10.900,0.868,3133
10.904,1.185,3133
10.908,1.357,3133
10.912,1.370,3133
10.916,1.192,3133
10.920,0.870,3133
10.924,0.438,3133
10.928,-0.052,3125
10.932,-0.565,3125
10.936,-1.058,3125
10.940,-1.508,3125
10.944,-1.827,3125
10.948,-1.990,3125
10.952,-1.992,3125
10.956,-1.823,3125
10.960,-0.980,3125
10.964,-0.492,3118
10.968,0.468,3118
10.972,0.865,3118
10.976,1.180,3118
10.980,1.350,3118
10.984,1.347,3118
10.988,1.167,3118
10.992,0.843,3118
10.996,0.398,3118
11.000,-0.087,3126
11.004,-0.620,3126
11.008,-1.093,3126
11.012,-1.542,3126
11.016,-1.860,3126
11.020,-2.018,3126
11.024,-2.022,3126
11.028,-1.857,3126
11.032,-1.538,3126
11.036,-1.097,3126
11.040,-0.050,3133
11.044,0.818,3133
11.048,1.133,3133
11.052,1.302,3133
11.056,1.308,3133
11.060,1.140,3133
11.064,0.823,3133
11.068,0.395,3133
11.072,-0.075,3133
11.076,-0.580,3111
11.080,-1.075,3111
11.084,-1.522,3111
11.088,-1.843,3111
11.092,-1.988,3111
11.096,-1.990,3111
11.100,-1.812,3111
11.104,-1.498,3111
11.108,-1.058,3111
11.112,-0.578,3111
11.116,-0.087,3124
11.120,0.910,3124
11.124,1.173,3124
11.128,1.337,3124
11.132,1.340,3124
11.136,1.167,3124
11.140,0.838,3124
11.144,0.417,3124
11.148,-0.070,3124
11.152,-0.570,3105
11.156,-1.083,3105
11.160,-1.528,3105
11.164,-1.847,3105
11.168,-2.007,3105
11.172,-2.007,3105
11.176,-1.847,3105
11.180,-1.512,3105
11.184,-1.073,3105
11.188,-0.593,3105
11.192,-0.098,3107
11.196,0.410,3107
11.200,1.208,3107
11.204,1.343,3107
11.208,1.353,3107
11.212,1.180,3107
11.216,0.863,3107
11.220,0.432,3107
11.224,-0.052,3107
11.228,-0.562,3109
11.232,-1.062,3109
11.236,-1.502,3109
11.240,-1.815,3109
11.244,-1.978,3109
11.248,-1.988,3109
11.252,-1.817,3109
11.256,-1.502,3109
11.260,-1.070,3109
11.264,-0.583,3109
11.268,-0.092,3109
11.272,0.415,3109
11.276,0.853,3109
11.280,1.357,3109
11.284,1.360,3109
11.288,1.185,3109
11.292,0.870,3109
11.296,0.438,3109
11.300,-0.033,3109
11.304,-0.542,3111
11.308,-1.060,3111
11.312,-1.502,3111
11.316,-1.827,3111
11.320,-1.988,3111
11.324,-2.002,3111
11.328,-1.825,3111
11.332,-1.500,3111
11.336,-1.073,3111
11.340,-0.588,3111
11.344,-0.090,3118
11.348,0.417,3118
11.352,0.853,3118
11.356,1.173,3118
11.360,1.337,3118
11.364,1.173,3118
11.368,0.825,3118
11.372,0.407,3118
11.376,-0.085,3118
11.380,-0.585,3116
11.384,-1.097,3116
11.388,-1.540,3116
11.392,-1.857,3116
11.396,-2.018,3116
11.400,-2.022,3116
11.404,-1.855,3116
11.408,-1.532,3116
11.412,-1.100,3116
11.416,-0.618,3116
11.420,-0.113,3114
11.424,0.407,3114
11.428,0.853,3114
11.432,1.180,3114
11.436,1.353,3114
11.440,1.147,3114
11.444,0.853,3114
11.448,0.415,3114
11.452,-0.062,3114
11.456,-0.578,3131
11.460,-1.087,3131
11.464,-1.525,3131
11.468,-1.843,3131
11.472,-2.007,3131
11.476,-2.007,3131
11.480,-1.840,3131
11.484,-1.512,3131
11.488,-1.073,3131
11.492,-0.593,3131
11.496,-0.107,3121
11.500,0.393,3121
11.504,0.838,3121
11.508,1.157,3121
11.512,1.327,3121
11.516,1.340,3121
11.520,0.772,3121
11.524,-0.215,3121
11.528,-0.610,3144
11.532,-1.073,3144
11.536,-1.528,3144
11.540,-1.840,3144
11.544,-2.010,3144
11.548,-2.013,3144
11.552,-1.850,3144
11.556,-1.528,3144
11.560,-1.097,3144
11.564,-0.620,3144
11.568,-0.128,3113
11.572,0.375,3113
11.576,0.823,3113
11.580,1.145,3113
11.584,1.327,3113
11.588,1.337,3113
11.592,1.163,3113
11.596,0.838,3113
11.600,-0.142,3113
11.604,-0.573,3135
11.608,-1.067,3135
11.612,-1.508,3135
11.616,-1.843,3135
11.620,-2.002,3135
11.624,-2.013,3135
11.628,-1.853,3135
11.632,-1.542,3135
11.636,-1.123,3135
11.640,-0.647,3135
11.644,-0.142,3113
11.648,0.367,3113
11.652,0.820,3113
11.656,1.150,3113
11.660,1.340,3113
11.664,1.367,3113
11.668,1.198,3113
11.672,0.887,3113
11.676,0.460,3113
11.680,-0.598,3132
11.684,-1.488,3132
11.688,-1.812,3132
11.692,-1.982,3132
11.696,-1.990,3132
11.700,-1.830,3132
11.704,-1.510,3132
11.708,-1.083,3132
11.712,-0.593,3132
11.716,-0.105,3124
11.720,0.390,3124
11.724,0.833,3124
11.728,1.157,3124
11.732,1.337,3124
11.736,1.343,3124
11.740,1.173,3124
11.744,0.858,3124
11.748,0.420,3124
11.752,-0.087,3124
11.756,-0.565,3138
11.760,-1.573,3138
11.764,-1.830,3138
11.768,-1.990,3138
11.772,-1.968,3138
11.776,-1.827,3138
11.780,-1.522,3138
11.784,-1.097,3138
11.788,-0.618,3138
11.792,-0.133,3143
11.796,0.367,3143
11.800,0.797,3143
11.804,1.137,3143
11.808,1.310,3143
11.812,1.333,3143
11.816,1.157,3143
11.820,0.838,3143
11.824,0.412,3143
11.828,-0.072,3143
11.832,-0.578,3136
11.836,-1.093,3136
11.840,-1.883,3136
11.844,-2.010,3136
11.848,-2.018,3136
11.852,-1.847,3136
11.856,-1.532,3136
11.860,-1.097,3136
11.864,-0.613,3136
11.868,-0.125,3122
11.872,0.378,3122
11.876,0.830,3122
11.880,1.147,3122
11.884,1.325,3122
11.888,1.333,3122
11.892,1.157,3122
11.896,0.850,3122
11.900,0.422,3122
11.904,-0.052,3122
11.908,-0.552,3106
11.912,-1.062,3106
11.916,-1.500,3106
11.920,-2.000,3106
11.924,-1.970,3106
11.928,-1.817,3106
11.932,-1.522,3106
11.936,-1.093,3106
11.940,-0.618,3106
11.944,-0.113,3124
11.948,0.395,3124
11.952,0.835,3124
11.956,1.163,3124
11.960,1.335,3124
11.964,1.343,3124
11.968,1.170,3124
11.972,0.850,3124
11.976,0.412,3124
11.980,-0.072,3124
11.984,-0.578,3121
11.988,-1.087,3121
11.992,-1.532,3121
11.996,-1.853,3121
12.000,-2.015,3121
12.004,-1.865,3121
12.008,-1.542,3121
12.012,-1.120,3121
12.016,-0.618,3121
12.020,-0.113,3112
12.024,0.398,3112
12.028,0.853,3112
12.032,1.180,3112
12.036,1.357,3112
12.040,1.377,3112
12.044,1.195,3112
12.048,0.875,3112
12.052,0.448,3112
12.056,-0.043,3112
12.060,-0.540,3129
12.064,-1.032,3129
12.068,-1.498,3129
12.072,-1.823,3129
12.076,-1.990,3129
12.080,-1.808,3129
12.084,-1.535,3129
12.088,-1.107,3129
12.092,-0.647,3129
12.096,-0.163,3129
12.100,0.343,3130
12.104,0.787,3130
12.108,1.113,3130
12.112,1.302,3130
12.116,1.323,3130
12.120,1.163,3130
12.124,0.845,3130
12.128,0.417,3130
12.132,-0.062,3130
12.136,-0.578,3130
12.140,-1.067,3102
12.144,-1.545,3102
12.148,-1.850,3102
12.152,-2.018,3102
12.156,-2.038,3102
12.160,-1.393,3102
12.164,-0.627,3102
12.168,-0.170,3102
12.172,0.338,3121
12.176,0.790,3121
12.180,1.117,3121
12.184,1.312,3121
12.188,1.337,3121
12.192,1.157,3121
12.196,0.860,3121
12.200,0.438,3121
12.204,-0.033,3121
12.208,-0.537,3121
12.212,-1.032,3112
12.216,-1.490,3112
12.220,-1.812,3112
12.224,-1.972,3112
12.228,-1.988,3112
12.232,-1.830,3112
12.236,-1.528,3112
12.240,-0.540,3112
12.244,-0.122,3112
12.248,0.380,3077
12.252,0.848,3077
12.256,1.165,3077
12.260,1.347,3077
12.264,1.367,3077
12.268,1.192,3077
12.272,0.873,3077
12.276,0.438,3077
12.280,-0.048,3077
12.284,-0.547,3077
12.288,-1.052,3103
12.292,-1.508,3103
12.296,-1.827,3103
12.300,-1.988,3103
12.304,-2.002,3103
12.308,-1.843,3103
12.312,-1.512,3103
12.316,-1.083,3103
12.320,-0.020,3113
12.324,0.853,3113
12.328,1.173,3113
12.332,1.347,3113
12.336,1.357,3113
12.340,1.188,3113
12.344,0.870,3113
12.348,0.448,3113
12.352,-0.043,3113
12.356,-0.547,3113
12.360,-1.048,3086
12.364,-1.502,3086
12.368,-1.827,3086
12.372,-1.992,3086
12.376,-2.018,3086
12.380,-1.863,3086
12.384,-1.552,3086
12.388,-1.133,3086
12.392,-0.665,3086
12.396,-0.172,3086
12.400,0.912,3114
12.404,1.312,3114
12.408,1.327,3114
12.412,1.143,3114
12.416,0.858,3114
12.420,0.427,3114
12.424,-0.062,3114
12.428,-0.568,3114
12.432,-1.067,3126
12.436,-1.528,3126
12.440,-1.857,3126
12.444,-2.022,3126
12.448,-2.038,3126
12.452,-1.875,3126
12.456,-1.573,3126
12.460,-1.133,3126
12.464,-0.657,3126
12.468,-0.140,3126
12.472,0.362,3123
12.476,0.828,3123
12.480,1.353,3123
12.484,1.347,3123
12.488,1.107,3123
12.492,0.830,3123
12.496,0.388,3123
12.500,-0.062,3123
12.504,-0.562,3123
12.508,-1.062,3095
12.512,-1.532,3095
12.516,-1.853,3095
12.520,-2.027,3095
12.524,-2.047,3095
12.528,-1.883,3095
12.532,-1.567,3095
12.536,-1.135,3095
12.540,-0.642,3095
12.544,-0.110,3095
12.548,0.385,3123
12.552,0.850,3123
12.556,1.173,3123
12.560,1.343,3123
12.564,1.183,3123
12.568,0.860,3123
12.572,0.432,3123
12.576,-0.052,3123
12.580,-0.550,3123
12.584,-1.048,3132
12.588,-1.502,3132
12.592,-1.823,3132
12.596,-1.990,3132
12.600,-2.015,3132
12.604,-1.855,3132
12.608,-1.545,3132
12.612,-1.123,3132
12.616,-0.647,3132
12.620,-0.147,3132
12.624,0.352,3145
12.628,0.792,3145
12.632,1.117,3145
12.636,1.312,3145
12.640,1.143,3145
12.644,0.772,3145
12.648,0.367,3145
12.652,-0.092,3145
12.656,-0.670,3145
12.660,-1.083,3136
12.664,-1.525,3136
12.668,-1.850,3136
12.672,-2.010,3136
12.676,-2.022,3136
12.680,-1.863,3136
12.684,-1.548,3136
12.688,-1.113,3136
12.692,-0.642,3136
12.696,-0.133,3136
12.700,0.370,3110
12.704,0.828,3110
12.708,1.167,3110
12.712,1.347,3110
12.716,1.357,3110
12.720,0.797,3110
12.724,0.438,3110
12.728,-0.052,3110
12.732,-0.562,3110
12.736,-1.060,3137
12.740,-1.522,3137
12.744,-1.843,3137
12.748,-2.007,3137
12.752,-2.020,3137
12.756,-1.853,3137
12.760,-1.535,3137
12.764,-1.100,3137
12.768,-0.623,3137
12.772,-0.125,3137
12.776,0.383,3146
12.780,0.848,3146
12.784,1.183,3146
12.788,1.367,3146
12.792,1.380,3146
12.796,1.218,3146
12.800,0.398,3146
12.804,-0.007,3146
12.808,-0.507,3146
12.812,-1.002,3125
12.816,-1.468,3125
12.820,-1.795,3125
12.824,-1.975,3125
12.828,-1.980,3125
12.832,-1.823,3125
12.836,-1.522,3125
12.840,-1.093,3125
12.844,-0.615,3125
12.848,-0.107,3125
12.852,0.383,3135
12.856,0.833,3135
12.860,1.153,3135
12.864,1.333,3135
12.868,1.350,3135
12.872,1.177,3135
12.876,0.865,3135
12.880,-0.128,3135
12.884,-1.100,3132
12.888,-1.857,3132
12.892,-2.010,3132
12.896,-2.022,3132
12.900,-1.840,3132
12.904,-1.512,3132
12.908,-1.107,3132
12.912,-0.625,3132
12.916,-0.122,3132
12.920,0.378,3160
12.924,1.022,3160
12.928,1.340,3160
12.932,1.343,3160
12.936,1.188,3160
12.940,0.873,3160
12.944,0.450,3160
12.948,-0.033,3160
12.952,-0.535,3160
12.956,-1.035,3121
12.960,-1.863,3121
12.964,-1.992,3121
12.968,-2.018,3121
12.972,-1.857,3121
12.976,-1.545,3121
12.980,-1.110,3121
12.984,-0.625,3121
12.988,-0.128,3121
12.992,0.372,3131
12.996,0.830,3131
13.000,1.150,3131
13.004,1.340,3131
13.008,1.353,3131
13.012,1.190,3131
13.016,0.873,3131
13.020,0.448,3131
13.024,-0.033,3131
13.028,-0.532,3131
13.032,-1.032,3124
13.036,-1.502,3124
13.040,-2.025,3124
13.044,-1.850,3124
13.048,-1.562,3124
13.052,-1.133,3124
13.056,-0.660,3124
13.060,-0.147,3124
13.064,0.367,3123
13.068,0.812,3123
13.072,1.147,3123
13.076,1.308,3123
13.080,1.330,3123
13.084,1.157,3123
13.088,0.865,3123
13.092,0.438,3123
13.096,-0.043,3123
13.100,-0.542,3123
13.104,-1.052,3123
13.108,-1.508,3114
13.112,-1.850,3114
13.116,-2.020,3114
13.120,-1.853,3114
13.124,-1.562,3114
13.128,-1.028,3114
13.132,-0.657,3114
13.136,-0.170,3114
13.140,0.347,3114
13.144,0.792,3125
13.148,1.145,3125
13.152,1.327,3125
13.156,1.345,3125
13.160,1.183,3125
13.164,0.868,3125
13.168,0.448,3125
13.172,-0.028,3125
13.176,-0.530,3125
13.180,-1.028,3125
13.184,-1.488,3126
13.188,-1.820,3126
13.192,-1.992,3126
13.196,-2.020,3126
13.200,-1.505,3126
13.204,-1.143,3126
13.208,-0.660,3126
13.212,-0.147,3126
13.216,0.350,3126
13.220,0.797,3110
13.224,1.153,3110
13.228,1.333,3110
13.232,1.355,3110
13.236,1.210,3110
13.240,0.897,3110
13.244,0.472,3110
13.248,-0.007,3110
13.252,-0.507,3110
13.256,-1.018,3110
13.260,-1.482,3098
13.264,-1.820,3098
13.268,-1.995,3098
13.272,-2.020,3098
13.276,-1.863,3098
13.280,-1.062,3098
13.284,-0.642,3098
13.288,-0.163,3098
13.292,0.352,3098
13.296,0.818,3113
13.300,1.167,3113
13.304,1.347,3113
13.308,1.377,3113
13.312,1.218,3113
13.316,0.907,3113
13.320,0.480,3113
13.324,-0.005,3113
13.328,-0.505,3113
13.332,-1.008,3113
13.336,-1.465,3129
13.340,-1.808,3129
13.344,-1.982,3129
13.348,-2.007,3129
13.352,-1.853,3129
13.356,-1.542,3129
13.360,-0.547,3129
13.364,-0.130,3129
13.368,0.372,3129
13.372,0.830,3106
13.376,1.173,3106
13.380,1.353,3106
13.384,1.373,3106
13.388,1.202,3106
13.392,0.885,3106
13.396,0.453,3106
13.400,-0.035,3106
13.404,-0.542,3106
13.408,-1.050,3106
13.412,-1.500,3111
13.416,-1.827,3111
13.420,-1.992,3111
13.424,-2.013,3111
13.428,-1.853,3111
13.432,-1.532,3111
13.436,-1.103,3111
13.440,-0.068,3111
13.444,0.458,3111
13.448,0.858,3109
13.452,1.308,3109
13.456,1.340,3109
13.460,1.188,3109
13.464,0.877,3109
13.468,0.458,3109
13.472,-0.022,3109
13.476,-0.527,3109
13.480,-1.028,3109
13.484,-1.498,3109
13.488,-1.827,3109
13.492,-2.002,3109
13.496,-2.022,3109
13.500,-1.863,3109
13.504,-1.562,3109
13.508,-1.143,3109
13.512,-0.652,3109
13.516,-0.140,3109
13.520,0.917,3134
13.524,1.310,3134
13.528,1.335,3134
13.532,1.180,3134
13.536,0.873,3134
13.540,0.463,3134
13.544,-0.013,3134
13.548,-0.507,3134
13.552,-1.008,3134
13.556,-1.462,3110
13.560,-1.812,3110
13.564,-2.002,3110
13.568,-2.022,3110
13.572,-1.873,3110
13.576,-1.573,3110
13.580,-1.153,3110
13.584,-0.672,3110
13.588,-0.190,3110
13.592,0.307,3110
13.596,0.767,3121
13.600,1.308,3121
13.604,1.323,3121
13.608,1.147,3121
13.612,0.848,3121
13.616,0.427,3121
13.620,-0.048,3121
13.624,-0.540,3121
13.628,-1.032,3121
13.632,-1.490,3117
13.636,-1.823,3117
13.640,-1.992,3117
13.644,-2.022,3117
13.648,-1.860,3117
13.652,-1.550,3117
13.656,-1.130,3117
13.660,-0.650,3117
13.664,-0.145,3117
13.668,0.372,3117
13.672,0.790,3093
13.676,1.140,3093
13.680,1.337,3093
13.684,1.188,3093
13.688,0.818,3093
13.692,0.448,3093
13.696,-0.043,3093
13.700,-0.547,3093
13.704,-1.048,3093
13.708,-1.502,3117
13.712,-1.843,3117
13.716,-2.020,3117
13.720,-2.047,3117
13.724,-1.893,3117
13.728,-1.583,3117
13.732,-1.163,3117
13.736,-0.667,3117
13.740,-0.172,3117
13.744,0.338,3117
13.748,0.792,3136
13.752,1.143,3136
13.756,1.335,3136
13.760,1.173,3136
13.764,0.830,3136
13.768,0.448,3136
13.772,-0.007,3136
13.776,-0.502,3136
13.780,-1.008,3136
13.784,-1.468,3133
13.788,-1.817,3133
13.792,-1.990,3133
13.796,-2.020,3133
13.800,-1.873,3133
13.804,-1.570,3133
13.808,-1.147,3133
13.812,-0.675,3133
13.816,-0.180,3133
13.820,0.338,3133
13.824,0.787,3128
13.828,1.143,3128
13.832,1.347,3128
13.836,1.387,3128
13.840,0.873,3128
13.844,0.522,3128
13.848,0.048,3128
13.852,-0.468,3128
13.856,-0.985,3128
13.860,-1.450,3128
13.864,-1.802,3128
13.868,-1.982,3128
13.872,-2.020,3128
13.876,-1.873,3128
13.880,-1.577,3128
13.884,-1.167,3128
13.888,-0.682,3128
13.892,-0.182,3128
13.896,0.333,3128
13.900,0.782,3133
13.904,1.137,3133
13.908,1.333,3133
13.912,1.355,3133
13.916,1.198,3133
13.920,0.398,3133
13.924,-0.013,3133
13.928,-0.512,3133
13.932,-1.018,3133
13.936,-1.482,3136
13.940,-1.825,3136
13.944,-2.002,3136
13.948,-2.022,3136
13.952,-1.867,3136
13.956,-1.567,3136
13.960,-1.145,3136
13.964,-0.662,3136
13.968,-0.170,3136
13.972,0.338,3136
13.976,0.780,3123
13.980,1.120,3123
13.984,1.317,3123
13.988,1.350,3123
13.992,1.198,3123
13.996,0.902,3123
14.000,-0.062,3123
14.004,-0.492,3123
14.008,-0.993,3123
14.012,-1.455,3124
14.016,-1.805,3124
14.020,-1.988,3124
14.024,-2.020,3124
14.028,-1.865,3124
14.032,-1.573,3124
14.036,-1.150,3124
14.040,-0.672,3124
14.044,-0.172,3124
14.048,0.338,3124
14.052,0.782,3106
14.056,1.137,3106
14.060,1.337,3106
14.064,1.355,3106
14.068,1.198,3106
14.072,0.902,3106
14.076,0.472,3106
14.080,-0.593,3106
14.084,-1.005,3106
14.088,-1.460,3106
14.092,-1.802,3127
14.096,-1.978,3127
14.100,-2.005,3127
14.104,-1.847,3127
14.108,-1.542,3127
14.112,-1.127,3127
14.116,-0.660,3127
14.120,-0.172,3127
14.124,0.333,3127
14.128,0.777,3127
14.132,1.113,3109
14.136,1.317,3109
14.140,1.347,3109
14.144,1.188,3109
14.148,0.877,3109
14.152,0.460,3109
14.156,-0.018,3109
14.160,-1.083,3109
14.164,-1.465,3109
14.168,-1.805,3110
14.172,-1.982,3110
14.176,-2.013,3110
14.180,-1.860,3110
14.184,-1.552,3110
14.188,-1.140,3110
14.192,-0.665,3110
14.196,-0.172,3110
14.200,0.343,3110
14.204,0.782,3110
14.208,1.133,3119
14.212,1.327,3119
14.216,1.353,3119
14.220,1.195,3119
14.224,0.897,3119
14.228,0.477,3119
14.232,0.015,3119
14.236,-0.495,3119
14.240,-1.512,3102
14.244,-1.978,3102
14.248,-2.018,3102
14.252,-1.873,3102
14.256,-1.573,3102
14.260,-1.150,3102
14.264,-0.662,3102
14.268,-0.163,3102
14.272,0.352,3102
14.276,0.818,3102
14.280,1.157,3121
14.284,1.350,3121
14.288,1.383,3121
14.292,1.222,3121
14.296,0.927,3121
14.300,0.505,3121
14.304,0.045,3121
14.308,-0.463,3121
14.312,-0.975,3121
14.316,-1.423,3121
14.320,-1.970,3114
14.324,-1.845,3114
14.328,-1.552,3114
14.332,-1.140,3114
14.336,-0.662,3114
14.340,-0.168,3114
14.344,0.338,3114
14.348,0.780,3114
14.352,1.113,3112
14.356,1.325,3112
14.360,1.347,3112
14.364,1.202,3112
14.368,0.900,3112
14.372,0.477,3112
14.376,-0.013,3112
14.380,-0.512,3112
14.384,-1.028,3112
14.388,-1.498,3112
14.392,-1.830,3102
14.396,-2.015,3102
14.400,-1.870,3102
14.404,-1.562,3102
14.408,-1.127,3102
14.412,-0.647,3102
14.416,-0.180,3102
14.420,0.318,3102
14.424,0.777,3102
14.428,1.133,3105
14.432,1.327,3105
14.436,1.357,3105
14.440,1.208,3105
14.444,0.892,3105
14.448,0.477,3105
14.452,0.013,3105
14.456,-0.507,3105
14.460,-1.018,3105
14.464,-1.485,3105
14.468,-1.830,3121
14.472,-2.018,3121
14.476,-2.047,3121
14.480,-1.532,3121
14.484,-1.173,3121
14.488,-0.688,3121
14.492,-0.182,3121
14.496,0.318,3121
14.500,0.792,3121
14.504,1.137,3086
14.508,1.340,3086
14.512,1.373,3086
14.516,1.212,3086
14.520,0.907,3086
14.524,0.480,3086
14.528,-0.005,3086
14.532,-0.500,3086
14.536,-0.993,3086
14.540,-1.460,3086
14.544,-1.808,3131
14.548,-1.978,3131
14.552,-2.007,3131
14.556,-1.860,3131
14.560,-1.073,3131
14.564,-0.623,3131
14.568,-0.138,3131
14.572,0.333,3131
14.576,0.777,3131
14.580,1.133,3134
14.584,1.327,3134
14.588,1.353,3134
14.592,1.198,3134
14.596,0.897,3134
14.600,0.470,3134
14.604,-0.007,3134
14.608,-0.497,3134
14.612,-1.000,3134
14.616,-1.458,3134
14.620,-1.802,3126
14.624,-1.980,3126
14.628,-2.013,3126
14.632,-1.863,3126
14.636,-1.562,3126
14.640,-0.583,3126
14.644,-0.172,3126
14.648,0.338,3126
14.652,0.782,3126
14.656,1.133,3131
14.660,1.333,3131
14.664,1.355,3131
14.668,1.208,3131
14.672,0.897,3131
14.676,0.475,3131
14.680,0.015,3131
14.684,-0.497,3131
14.688,-1.002,3131
14.692,-1.462,3131
14.696,-1.802,3140
14.700,-1.985,3140
14.704,-2.020,3140
14.708,-1.873,3140
14.712,-1.583,3140
14.716,-1.167,3140
14.720,-0.098,3140
14.724,0.312,3140
14.728,0.775,3140
14.732,1.115,3132
14.736,1.327,3132
14.740,1.353,3132
14.744,1.208,3132
14.748,0.900,3132
14.752,0.470,3132
14.756,-0.007,3132
14.760,-0.502,3132
14.764,-1.002,3132
14.768,-1.452,3132
14.772,-1.788,3140
14.776,-1.972,3140
14.780,-2.002,3140
14.784,-1.853,3140
14.788,-1.552,3140
14.792,-1.140,3140
14.796,-0.660,3140
14.800,0.415,3140
14.804,1.153,3133
14.808,1.337,3133
14.812,1.188,3133
14.816,0.887,3133
14.820,0.422,3133
14.824,-0.022,3133
14.828,-0.502,3133
14.832,-1.002,3133
14.836,-1.460,3133
14.840,-1.802,3154
14.844,-1.990,3154
14.848,-2.018,3154
14.852,-1.873,3154
14.856,-1.577,3154
14.860,-1.163,3154
14.864,-0.685,3154
14.868,-0.180,3154
14.872,0.318,3154
14.876,0.782,3154
14.880,1.340,3124
14.884,1.208,3124
14.888,0.902,3124
14.892,0.477,3124
14.896,-0.005,3124
14.900,-0.502,3124
14.904,-1.008,3124
14.908,-1.458,3124
14.912,-1.792,3126
14.916,-1.975,3126
14.920,-1.995,3126
14.924,-1.855,3126
14.928,-1.552,3126
14.932,-1.137,3126
14.936,-0.667,3126
14.940,-0.182,3126
14.944,0.310,3126
14.948,0.775,3126
14.952,1.117,3126
14.956,1.327,3126
14.960,1.177,3126
14.964,0.907,3126
14.968,0.497,3126
14.972,0.022,3126
14.976,-0.492,3126
14.980,-0.993,3126
14.984,-1.460,3126
14.988,-1.802,3124
14.992,-1.992,3124
14.996,-2.022,3124
15.000,-1.873,3124
15.004,-1.577,3124
15.008,-1.163,3124
15.012,-0.688,3124
15.016,-0.182,3124
15.020,0.318,3124
15.024,0.782,3124
15.028,1.117,3133
15.032,1.317,3133
15.036,1.340,3133
15.040,0.797,3133
15.044,0.438,3133
15.048,-0.035,3133
15.052,-0.535,3133
15.056,-1.028,3133
15.060,-1.480,3133
15.064,-1.823,3123
15.068,-2.020,3123
15.072,-2.042,3123
15.076,-1.897,3123
15.080,-1.610,3123
15.084,-1.177,3123
15.088,-0.698,3123
15.092,-0.207,3123
15.096,0.290,3123
15.100,0.750,3123
15.104,1.100,3123
15.108,1.300,3134
15.112,1.333,3134
15.116,1.188,3134
15.120,0.420,3134
15.124,0.037,3134
15.128,-0.480,3134
15.132,-0.973,3134
15.136,-1.425,3134
15.140,-1.782,3134
15.144,-1.978,3121
15.148,-2.010,3121
15.152,-1.870,3121
15.156,-1.577,3121
15.160,-1.167,3121
15.164,-0.693,3121
15.168,-0.203,3121
15.172,0.302,3121
15.176,0.772,3121
15.180,1.110,3121
15.184,1.312,3108
15.188,1.353,3108
15.192,1.210,3108
15.196,0.912,3108
15.200,-0.052,3108
15.204,-0.463,3108
15.208,-0.985,3108
15.212,-1.427,3108
15.216,-1.788,3108
15.220,-1.978,3106
15.224,-2.020,3106
15.228,-1.887,3106
15.232,-1.577,3106
15.236,-1.180,3106
15.240,-0.708,3106
15.244,-0.215,3106
15.248,0.278,3106
15.252,0.740,3106
15.256,1.077,3106
15.260,1.268,3118
15.264,1.327,3118
15.268,1.177,3118
15.272,0.887,3118
15.276,0.463,3118
15.280,-0.593,3118
15.284,-1.015,3118
15.288,-1.472,3118
15.292,-1.815,3118
15.296,-2.007,3117
15.300,-2.035,3117
15.304,-1.905,3117
15.308,-1.617,3117
15.312,-1.188,3117
15.316,-0.708,3117
15.320,-0.217,3117
15.324,0.278,3117
15.328,0.748,3117
15.332,1.100,3117
15.336,1.312,3101
15.340,1.357,3101
15.344,1.215,3101
15.348,0.917,3101
15.352,0.517,3101
15.356,0.045,3101
15.360,-1.058,3101
15.364,-1.452,3101
15.368,-1.808,3101
15.372,-1.990,3104
15.376,-2.022,3104
15.380,-1.887,3104
15.384,-1.607,3104
15.388,-1.180,3104
15.392,-0.700,3104
15.396,-0.207,3104
15.400,0.302,3104
15.404,0.775,3104
15.408,1.117,3104
15.412,1.337,3112
15.416,1.373,3112
15.420,1.228,3112
15.424,0.932,3112
15.428,0.517,3112
15.432,0.048,3112
15.436,-0.458,3112
15.440,-1.482,3112
15.444,-1.768,3112
15.448,-1.950,3117
15.452,-1.988,3117
15.456,-1.857,3117
15.460,-1.573,3117
15.464,-1.155,3117
15.468,-0.688,3117
15.472,-0.193,3117
15.476,0.302,3117
15.480,0.757,3117
15.484,1.115,3117
15.488,1.323,3097
15.492,1.357,3097
15.496,1.215,3097
15.500,0.927,3097
15.504,0.502,3097
15.508,0.028,3097
15.512,-0.495,3097
15.516,-0.978,3097
15.520,-1.845,3097
15.524,-1.992,3117
15.528,-2.030,3117
15.532,-1.895,3117
15.536,-1.607,3117
15.540,-1.183,3117
15.544,-0.703,3117
15.548,-0.210,3117
15.552,0.295,3117
15.556,0.752,3117
15.560,1.107,3117
15.564,1.330,3110
15.568,1.373,3110
15.572,1.222,3110
15.576,0.930,3110
15.580,0.527,3110
15.584,0.052,3110
15.588,-0.458,3110
15.592,-0.965,3110
15.596,-1.417,3110
15.600,-1.978,3150
15.604,-1.863,3150
15.608,-1.583,3150
15.612,-1.173,3150
15.616,-0.685,3150
15.620,-0.207,3150
15.624,0.280,3150
15.628,0.745,3150
15.632,1.093,3150
15.636,1.298,3117
15.640,1.333,3117
15.644,1.183,3117
15.648,0.887,3117
15.652,0.468,3117
15.656,-0.013,3117
15.660,-0.510,3117
15.664,-1.018,3117
15.668,-1.472,3117
15.672,-1.817,3117
15.676,-1.990,3085
15.680,-1.843,3085
15.684,-1.577,3085
15.688,-1.163,3085
15.692,-0.682,3085
15.696,-0.182,3085
15.700,0.312,3085
15.704,0.777,3085
15.708,1.133,3085
15.712,1.333,3138
15.716,1.370,3138
15.720,1.222,3138
15.724,0.932,3138
15.728,0.512,3138
15.732,0.043,3138
15.736,-0.468,3138
15.740,-0.973,3138
15.744,-1.423,3138
15.748,-1.762,3138
15.752,-1.968,3132
15.756,-2.010,3132
15.760,-1.528,3132
15.764,-1.173,3132
15.768,-0.700,3132
15.772,-0.212,3132
15.776,0.287,3132
15.780,0.743,3132
15.784,1.100,3132
15.788,1.317,3139
15.792,1.353,3139
15.796,1.218,3139
15.800,0.917,3139
15.804,0.512,3139
15.808,0.028,3139
15.812,-0.482,3139
15.816,-0.978,3139
15.820,-1.445,3139
15.824,-1.792,3139
15.828,-1.978,3133
15.832,-2.018,3133
15.836,-1.887,3133
15.840,-1.100,3133
15.844,-0.715,3133
15.848,-0.212,3133
15.852,0.292,3133
15.856,0.755,3133
15.860,1.107,3133
15.864,1.323,3121
15.868,1.370,3121
15.872,1.228,3121
15.876,0.943,3121
15.880,0.532,3121
15.884,0.060,3121
15.888,-0.453,3121
15.892,-0.965,3121
15.896,-1.427,3121
15.900,-1.785,3121
15.904,-1.988,3129
15.908,-2.022,3129
15.912,-1.897,3129
15.916,-1.625,3129
15.920,-0.662,3129
15.924,-0.253,3129
15.928,0.253,3129
15.932,0.713,3129
15.936,1.077,3129
15.940,1.272,3122
15.944,1.337,3122
15.948,1.192,3122
15.952,0.912,3122
15.956,0.507,3122
15.960,0.050,3122
15.964,-0.448,3122
15.968,-0.963,3122
15.972,-1.423,3122
15.976,-1.780,3122
15.980,-1.972,3118
15.984,-2.020,3118
15.988,-1.883,3118
15.992,-1.617,3118
15.996,-1.202,3118
16.000,-0.140,3118
16.004,0.263,3118
16.008,0.770,3118
16.012,1.090,3118
16.016,1.300,3114
16.020,1.347,3114
16.024,1.212,3114
16.028,0.917,3114
16.032,0.512,3114
16.036,0.043,3114
16.040,-0.463,3114
16.044,-0.968,3114
16.048,-1.423,3114
16.052,-1.772,3114
16.056,-1.962,3113
16.060,-1.995,3113
16.064,-1.860,3113
16.068,-1.570,3113
16.072,-1.160,3113
16.076,-0.682,3113
16.080,0.388,3113
16.084,0.760,3113
16.088,1.120,3113
16.092,1.330,3114
16.096,1.377,3114
16.100,1.232,3114
16.104,0.943,3114
16.108,0.532,3114
16.112,0.060,3114
16.116,-0.448,3114
16.120,-0.940,3114
16.124,-1.413,3114
16.128,-1.770,3114
16.132,-1.972,3114
16.136,-2.015,3138
16.140,-1.887,3138
16.144,-1.607,3138
16.148,-1.183,3138
16.152,-0.703,3138
16.156,-0.210,3138
16.160,0.825,3138
16.164,1.105,3138
16.168,1.312,3138
16.172,1.347,3106
16.176,1.212,3106
16.180,0.927,3106
16.184,0.530,3106
16.188,0.060,3106
16.192,-0.438,3106
16.196,-0.945,3106
16.200,-1.417,3106
16.204,-1.772,3106
16.208,-1.968,3106
16.212,-2.018,3110
16.216,-1.893,3110
16.220,-1.617,3110
16.224,-1.208,3110
16.228,-0.738,3110
16.232,-0.258,3110
16.236,0.247,3110
16.240,1.107,3110
16.244,1.265,3110
16.248,1.323,3106
16.252,1.185,3106
16.256,0.902,3106
16.260,0.497,3106
16.264,0.033,3106
16.268,-0.468,3106
16.272,-0.973,3106
16.276,-1.445,3106
16.280,-1.788,3106
16.284,-1.978,3106
16.288,-2.020,3109
16.292,-1.877,3109
16.296,-1.607,3109
16.300,-1.177,3109
16.304,-0.703,3109
16.308,-0.210,3109
16.312,0.278,3109
16.316,0.748,3109
16.320,1.333,3107
16.324,1.232,3107
16.328,0.945,3107
16.332,0.545,3107
16.336,0.075,3107
16.340,-0.422,3107
16.344,-0.932,3107
16.348,-1.403,3107
16.352,-1.762,3107
16.356,-1.962,3107
16.360,-2.007,3124
16.364,-1.863,3124
16.368,-1.577,3124
16.372,-1.140,3124
16.376,-0.703,3124
16.380,-0.210,3124
16.384,0.290,3124
16.388,0.745,3124
16.392,1.095,3124
16.396,1.312,3124
16.400,1.183,3114
16.404,0.512,3114
16.408,0.052,3114
16.412,-0.453,3114
16.416,-0.968,3114
16.420,-1.420,3114
16.424,-1.780,3114
16.428,-1.975,3114
16.432,-2.018,3110
16.436,-1.887,3110
16.440,-1.607,3110
16.444,-1.185,3110
16.448,-0.703,3110
16.452,-0.212,3110
16.456,0.292,3110
16.460,0.752,3110
16.464,1.107,3110
16.468,1.327,3110
16.472,1.377,3125
16.476,1.240,3125
16.480,0.472,3125
16.484,0.077,3125
16.488,-0.420,3125
16.492,-0.922,3125
16.496,-1.393,3125
16.500,-1.748,3125
16.504,-1.962,3125
16.508,-2.013,3112
16.512,-1.887,3112
16.516,-1.613,3112
16.520,-1.205,3112
16.524,-0.738,3112
16.528,-0.250,3112
16.532,0.253,3112
16.536,0.715,3112
16.540,1.077,3112
16.544,1.272,3112
16.548,1.337,3119
16.552,1.192,3119
16.556,0.907,3119
16.560,-0.052,3119
16.564,-0.482,3119
16.568,-0.970,3119
16.572,-1.440,3119
16.576,-1.788,3119
16.580,-2.007,3119
16.584,-2.022,3127
16.588,-1.887,3127
16.592,-1.607,3127
16.596,-1.190,3127
16.600,-0.715,3127
16.604,-0.220,3127
16.608,0.270,3127
16.612,0.738,3127
16.616,1.090,3127
16.620,1.302,3127
16.624,1.350,3095
16.628,1.215,3095
16.632,0.920,3095
16.636,0.512,3095
16.640,-0.537,3095
16.644,-1.060,3095
16.648,-1.550,3095
16.652,-1.812,3095
16.656,-1.975,3095
16.660,-2.058,3124
16.664,-1.895,3124
16.668,-1.585,3124
16.672,-1.147,3124
16.676,-0.665,3124
16.680,-0.160,3124
16.684,0.318,3124
16.688,0.785,3124
16.692,1.095,3124
16.696,1.298,3124
16.700,1.337,3115
16.704,1.192,3115
16.708,0.907,3115
16.712,0.507,3115
16.716,0.043,3115
16.720,-1.042,3115
16.724,-1.498,3115
16.728,-1.782,3115
16.732,-1.980,3115
16.736,-2.020,3113
16.740,-1.617,3113
16.744,-1.212,3113
16.748,-0.740,3113
16.752,-0.180,3113
16.756,0.258,3113
16.760,0.710,3113
16.764,1.067,3113
16.768,1.272,3113
16.772,1.335,3120
16.776,1.177,3120
16.780,0.905,3120
16.784,0.507,3120
16.788,0.050,3120
16.792,-0.450,3120
16.796,-0.945,3120
16.800,-1.792,3120
16.804,-1.942,3120
16.808,-1.985,3108
16.812,-1.853,3108
16.816,-1.567,3108
16.820,-1.173,3108
16.824,-0.698,3108
16.828,-0.210,3108
16.832,0.278,3108
16.836,0.745,3108
16.840,1.100,3108
16.844,1.308,3108
16.848,1.350,3148
16.852,1.212,3148
16.856,0.917,3148
16.860,0.522,3148
16.864,0.055,3148
16.868,-0.448,3148
16.872,-0.948,3148
16.876,-1.417,3148
16.880,-1.985,3148
16.884,-2.018,3086
16.888,-1.887,3086
16.892,-1.620,3086
16.896,-1.212,3086
16.900,-0.740,3086
16.904,-0.258,3086
16.908,0.245,3086
16.912,0.718,3086
16.916,1.077,3086
16.920,1.305,3086
16.924,1.357,3128
16.928,1.222,3128
16.932,0.943,3128
16.936,0.540,3128
16.940,0.068,3128
16.944,-0.427,3128
16.948,-0.935,3128
16.952,-1.397,3128
16.956,-1.768,3128
16.960,-2.002,3133
16.964,-1.603,3133
16.968,-1.192,3133
16.972,-0.723,3133
16.976,-0.223,3133
16.980,0.278,3133
16.984,0.748,3133
16.988,1.107,3133
16.992,1.323,3133
16.996,1.370,3113
17.000,1.222,3113
17.004,0.943,3113
17.008,0.537,3113
17.012,0.065,3113
17.016,-0.432,3113
17.020,-0.938,3113
17.024,-1.413,3113
17.028,-1.772,3113
17.032,-1.968,3113
17.036,-2.018,3116
17.040,-1.573,3116
17.044,-1.218,3116
17.048,-0.743,3116
17.052,-0.253,3116
17.056,0.258,3116
17.060,0.738,3116
17.064,1.103,3116
17.068,1.327,3116
17.072,1.377,3131
17.076,1.235,3131
17.080,0.955,3131
17.084,0.552,3131
17.088,0.087,3131
17.092,-0.422,3131
17.096,-0.930,3131
17.100,-1.413,3131
17.104,-1.780,3131
17.108,-1.985,3131
17.112,-2.033,3131
17.116,-1.933,3113
17.120,-1.185,3113
17.124,-0.650,3113
17.128,-0.253,3113
17.132,0.233,3113
17.136,0.710,3113
17.140,1.090,3113
17.144,1.312,3113
17.148,1.377,3113
17.152,1.232,3116
17.156,0.943,3116
17.160,0.547,3116
17.164,-0.522,3116
17.168,-0.935,3116
17.172,-1.417,3116
17.176,-1.785,3116
17.180,-1.985,3116
17.184,-2.042,3116
17.188,-1.927,3112
17.192,-1.643,3112
17.196,-1.220,3112
17.200,-0.177,3112
17.204,0.237,3112
17.208,0.710,3112
17.212,1.073,3112
17.216,1.302,3112
17.220,1.353,3112
17.224,1.228,3078
17.228,0.927,3078
17.232,0.535,3078
17.236,0.060,3078
17.240,-0.448,3078
17.244,-0.963,3078
17.248,-1.425,3078
17.252,-1.792,3078
17.256,-1.990,3078
17.260,-2.033,3078
17.264,-1.923,3108
17.268,-1.633,3108
17.272,-1.222,3108
17.276,-0.752,3108
17.280,0.312,3108
17.284,0.708,3108
17.288,1.073,3108
17.292,1.298,3108
17.296,1.353,3108
17.300,1.228,3106
17.304,0.932,3106
17.308,0.532,3106
17.312,0.058,3106
17.316,-0.450,3106
17.320,-0.968,3106
17.324,-1.427,3106
17.328,-1.802,3106
17.332,-1.990,3106
17.336,-2.033,3106
17.340,-1.920,3125
17.344,-1.627,3125
17.348,-1.218,3125
17.352,-0.748,3125
17.356,-0.247,3125
17.360,0.792,3125
17.364,1.145,3125
17.368,1.317,3125
17.372,1.357,3125
17.376,1.232,3115
17.380,0.938,3115
17.384,0.542,3115
17.388,0.077,3115
17.392,-0.427,3115
17.396,-0.935,3115
17.400,-1.407,3115
17.404,-1.770,3115
17.408,-1.972,3115
17.412,-2.027,3115
17.416,-1.905,3110
17.420,-1.627,3110
17.424,-1.222,3110
17.428,-0.762,3110
17.432,-0.265,3110
17.436,0.237,3110
17.440,1.133,3110
17.444,1.305,3110
17.448,1.357,3110
17.452,1.232,3104
17.456,0.953,3104
17.460,0.565,3104
17.464,0.100,3104
17.468,-0.407,3104
17.472,-0.907,3104
17.476,-1.377,3104
17.480,-1.740,3104
17.484,-1.962,3104
17.488,-2.022,3104
17.492,-1.923,3114
17.496,-1.650,3114
17.500,-1.238,3114
17.504,-0.772,3114
17.508,-0.273,3114
17.512,0.228,3114
17.516,0.695,3114
17.520,1.310,3114
17.524,1.353,3114
17.528,1.238,3113
17.532,0.948,3113
17.536,0.568,3113
17.540,0.100,3113
17.544,-0.407,3113
17.548,-0.925,3113
17.552,-1.383,3113
17.556,-1.740,3113
17.560,-1.958,3113
17.564,-2.015,3113
17.568,-1.893,3106
17.572,-1.617,3106
17.576,-1.212,3106
17.580,-0.743,3106
17.584,-0.255,3106
17.588,0.247,3106
17.592,0.700,3106
17.596,1.060,3106
17.600,1.323,3106
17.604,1.208,3125
17.608,0.912,3125
17.612,0.515,3125
17.616,0.050,3125
17.620,-0.453,3125
17.624,-0.945,3125
17.628,-1.410,3125
17.632,-1.768,3125
17.636,-1.962,3125
17.640,-2.013,3125
17.644,-1.887,3115
17.648,-1.613,3115
17.652,-1.208,3115
17.656,-0.733,3115
17.660,-0.242,3115
17.664,0.263,3115
17.668,0.718,3115
17.672,1.087,3115
17.676,1.302,3115
17.680,1.188,3140
17.684,0.497,3140
17.688,0.060,3140
17.692,-0.443,3140
17.696,-0.938,3140
17.700,-1.413,3140
17.704,-1.778,3140
17.708,-1.972,3140
17.712,-2.025,3140
17.716,-1.927,3108
17.720,-1.627,3108
17.724,-1.218,3108
17.728,-0.740,3108
17.732,-0.253,3108
17.736,0.247,3108
17.740,0.700,3108
17.744,1.067,3108
17.748,1.270,3108
17.752,1.340,3108
17.756,1.212,3131
17.760,0.463,3131
17.764,0.068,3131
17.768,-0.427,3131
17.772,-0.932,3131
17.776,-1.397,3131
17.780,-1.775,3131
17.784,-1.975,3131
17.788,-2.033,3131
17.792,-1.923,3144
17.796,-1.645,3144
17.800,-1.248,3144
17.804,-0.772,3144
17.808,-0.278,3144
17.812,0.217,3144
17.816,0.688,3144
17.820,1.050,3144
17.824,1.265,3144
17.828,1.337,3144
17.832,1.218,3105
17.836,0.927,3105
17.840,-0.015,3105
17.844,-0.420,3105
17.848,-0.922,3105
17.852,-1.385,3105
17.856,-1.748,3105
17.860,-1.965,3105
17.864,-2.020,3105
17.868,-1.903,3117
17.872,-1.633,3117
17.876,-1.230,3117
17.880,-0.752,3117
17.884,-0.268,3117
17.888,0.228,3117
17.892,0.698,3117
17.896,1.062,3117
17.900,1.268,3117
17.904,1.353,3117
17.908,1.228,3127
17.912,0.940,3127
17.916,0.517,3127
17.920,-0.510,3127
17.924,-0.963,3127
17.928,-1.403,3127
17.932,-1.780,3127
17.936,-1.992,3127
17.940,-2.055,3127
17.944,-1.950,3125
17.948,-1.683,3125
17.952,-1.292,3125
17.956,-0.812,3125
17.960,-0.302,3125
17.964,0.212,3125
17.968,0.677,3125
17.972,1.062,3125
17.976,1.270,3125
17.980,1.347,3125
17.984,1.222,3130
17.988,0.940,3130
17.992,0.552,3130
17.996,0.090,3130
18.000,-1.028,3130
18.004,-1.482,3130
18.008,-1.772,3130
18.012,-1.965,3130
18.016,-2.013,3130
18.020,-1.897,3127
18.024,-1.623,3127
18.028,-1.212,3127
18.032,-0.743,3127
18.036,-0.250,3127
18.040,0.250,3127
18.044,0.713,3127
18.048,1.077,3127
18.052,1.305,3127
18.056,1.370,3127
18.060,1.248,3109
18.064,0.955,3109
18.068,0.555,3109
18.072,0.098,3109
18.076,-0.407,3109
18.080,-1.452,3109
18.084,-1.748,3109
18.088,-1.972,3109
18.092,-2.027,3109
18.096,-1.927,3113
18.100,-1.653,3113
18.104,-1.260,3113
18.108,-0.812,3113
18.112,-0.323,3113
18.116,0.188,3113
18.120,0.657,3113
18.124,1.028,3113
18.128,1.245,3113
18.132,1.333,3113
18.136,1.218,3125
18.140,0.943,3125
18.144,0.570,3125
18.148,0.113,3125
18.152,-0.380,3125
18.156,-0.882,3125
18.160,-1.772,3125
18.164,-1.942,3125
18.168,-2.007,3125
18.172,-1.897,3125
18.176,-1.643,3105
18.180,-1.232,3105
18.184,-0.775,3105
18.188,-0.290,3105
18.192,0.220,3105
18.196,0.690,3105
18.200,1.062,3105
18.204,1.272,3105
18.208,1.353,3105
18.212,1.230,3105
18.216,0.948,3116
18.220,0.550,3116
18.224,0.077,3116
18.228,-0.403,3116
18.232,-0.907,3116
18.236,-1.377,3116
18.240,-1.970,3116
18.244,-2.022,3116
18.248,-1.903,3117
18.252,-1.210,3117
18.256,-0.767,3117
18.260,-0.282,3117
18.264,0.223,3117
18.268,0.698,3117
18.272,1.067,3117
18.276,1.275,3117
18.280,1.357,3117
18.284,1.232,3117
18.288,0.958,3151
18.292,0.568,3151
18.296,0.115,3151
18.300,-0.388,3151
18.304,-0.892,3151
18.308,-1.353,3151
18.312,-1.728,3151
18.316,-1.938,3151
18.320,-1.857,3107
18.324,-1.218,3107
18.328,-0.762,3107
18.332,-0.263,3107
18.336,0.230,3107
18.340,0.703,3107
18.344,1.067,3107
18.348,1.302,3107
18.352,1.355,3107
18.356,1.235,3107
18.360,0.953,3128
18.364,0.552,3128
18.368,0.090,3128
18.372,-0.410,3128
18.376,-0.907,3128
18.380,-1.380,3128
18.384,-1.748,3128
18.388,-1.968,3128
18.392,-2.022,3128
18.396,-1.927,3128
18.400,-1.177,3121
18.404,-0.258,3121
18.408,0.233,3121
18.412,0.708,3121
18.416,1.073,3121
18.420,1.302,3121
18.424,1.357,3121
18.428,1.248,3121
18.432,0.988,3105
18.436,0.578,3105
18.440,0.117,3105
18.444,-0.378,3105
18.448,-0.890,3105
18.452,-1.353,3105
18.456,-1.732,3105
18.460,-1.950,3105
18.464,-2.013,3105
18.468,-1.900,3105
18.472,-1.647,3118
18.476,-1.228,3118
18.480,-0.203,3118
18.484,0.217,3118
18.488,0.693,3118
18.492,1.067,3118
18.496,1.295,3118
18.500,1.357,3118
18.504,1.248,3118
18.508,0.975,3106
18.512,0.568,3106
18.516,0.105,3106
18.520,-0.393,3106
18.524,-0.897,3106
18.528,-1.373,3106
18.532,-1.735,3106
18.536,-1.952,3106
18.540,-2.018,3106
18.544,-1.903,3106
18.548,-1.647,3112
18.552,-1.242,3112
18.556,-0.782,3112
18.560,0.268,3112
18.564,0.693,3112
18.568,1.058,3112
18.572,1.272,3112
18.576,1.353,3112
18.580,1.248,3112
18.584,0.983,3138
18.588,0.578,3138
18.592,0.113,3138
18.596,-0.378,3138
18.600,-0.885,3138
18.604,-1.350,3138
18.608,-1.718,3138
18.612,-1.945,3138
18.616,-2.013,3138
18.620,-1.903,3138
18.624,-1.647,3125
18.628,-1.232,3125
18.632,-0.767,3125
18.636,-0.287,3125
18.640,0.752,3125
18.644,1.075,3125
18.648,1.292,3125
18.652,1.373,3125
18.656,1.268,3125
18.660,0.998,3134
18.664,0.532,3134
18.668,0.058,3134
18.672,-0.393,3134
18.676,-0.882,3134
18.680,-1.442,3134
18.684,-1.728,3134
18.688,-1.938,3134
18.692,-1.992,3134
18.696,-1.897,3134
18.700,-1.627,3134
18.704,-0.728,3134
18.708,-0.265,3134
18.712,0.250,3134
18.716,0.728,3134
18.720,1.367,3134
18.724,1.417,3134
18.728,1.310,3134
18.732,1.018,3139
18.736,0.598,3139
18.740,0.140,3139
18.744,-0.367,3139
18.748,-0.868,3139
18.752,-1.350,3139
18.756,-1.728,3139
18.760,-1.942,3139
18.764,-2.005,3139
18.768,-1.893,3139
18.772,-1.620,3140
18.776,-1.202,3140
18.780,-0.745,3140
18.784,-0.247,3140
18.788,0.247,3140
18.792,0.708,3140
18.796,1.077,3140
18.800,1.367,3140
18.804,1.252,3140
18.808,0.995,3129
18.812,0.588,3129
18.816,0.133,3129
18.820,-0.365,3129
18.824,-0.863,3129
18.828,-1.340,3129
18.832,-1.705,3129
18.836,-1.938,3129
18.840,-2.007,3129
18.844,-1.900,3129
18.848,-1.640,3139
18.852,-1.228,3139
18.856,-0.775,3139
18.860,-0.285,3139
18.864,0.220,3139
18.868,0.688,3139
18.872,1.062,3139
18.876,1.298,3139
18.880,1.208,3139
18.884,0.978,3129
18.888,0.570,3129
18.892,0.113,3129
18.896,-0.383,3129
18.900,-0.882,3129
18.904,-1.353,3129
18.908,-1.768,3129
18.912,-1.965,3129
18.916,-2.018,3129
18.920,-1.923,3129
18.924,-1.655,3130
18.928,-1.242,3130
18.932,-0.802,3130
18.936,-0.242,3130
18.940,0.230,3130
18.944,0.743,3130
18.948,1.058,3130
18.952,1.298,3130
18.956,1.367,3130
18.960,0.938,3121
18.964,0.138,3121
18.968,-0.343,3121
18.972,-0.848,3121
18.976,-1.312,3121
18.980,-1.690,3121
18.984,-1.923,3121
18.988,-1.988,3121
18.992,-1.885,3121
18.996,-1.630,3126
19.000,-1.103,3126
19.004,-0.767,3126
19.008,-0.292,3126
19.012,0.195,3126
19.016,0.662,3126
19.020,1.032,3126
19.024,1.260,3126
19.028,1.337,3126
19.032,1.230,3126
19.036,0.958,3130
19.040,-0.013,3130
19.044,-0.520,3130
19.048,-0.932,3130
19.052,-1.377,3130
19.056,-1.745,3130
19.060,-1.965,3130
19.064,-2.027,3130
19.068,-1.907,3130
19.072,-1.650,3125
19.076,-1.228,3125
19.080,-0.765,3125
19.084,-0.273,3125
19.088,0.228,3125
19.092,0.708,3125
19.096,1.087,3125
19.100,1.310,3125
19.104,1.383,3125
19.108,1.260,3125
19.112,0.993,3112
19.116,0.580,3112
19.120,-0.492,3112
19.124,-0.902,3112
19.128,-1.387,3112
19.132,-1.765,3112
19.136,-1.978,3112
19.140,-2.035,3112
19.144,-1.927,3112
19.148,-1.653,3112
19.152,-1.248,3102
19.156,-0.752,3102
19.160,-0.273,3102
19.164,0.230,3102
19.168,0.708,3102
19.172,1.090,3102
19.176,1.323,3102
19.180,1.387,3102
19.184,1.268,3102
19.188,1.008,3102
19.192,0.608,3116
19.196,0.130,3116
19.200,-0.940,3116
19.204,-1.442,3116
19.208,-1.735,3116
19.212,-1.940,3116
19.216,-2.005,3116
19.220,-1.900,3116
19.224,-1.650,3116
19.228,-1.250,3118
19.232,-0.782,3118
19.236,-0.300,3118
19.240,0.193,3118
19.244,0.657,3118
19.248,1.022,3118
19.252,1.252,3118
19.256,1.337,3118
19.260,1.235,3118
19.264,0.980,3118
19.268,0.595,3113
19.272,0.138,3113
19.276,-0.362,3113
19.280,-1.393,3113
19.284,-1.702,3113
19.288,-1.933,3113
19.292,-1.992,3113
19.296,-1.893,3113
19.300,-1.633,3113
19.304,-1.232,3114
19.308,-0.767,3114
19.312,-0.292,3114
19.316,0.210,3114
19.320,0.677,3114
19.324,1.058,3114
19.328,1.292,3114
19.332,1.357,3114
19.336,1.258,3114
19.340,0.990,3114
19.344,0.598,3105
19.348,0.120,3105
19.352,-0.367,3105
19.356,-0.873,3105
19.360,-1.782,3105
19.364,-1.962,3105
19.368,-2.022,3105
19.372,-1.925,3105
19.376,-1.663,3105
19.380,-1.260,3121
19.384,-0.782,3121
19.388,-0.305,3121
19.392,0.207,3121
19.396,0.688,3121
19.400,1.067,3121
19.404,1.302,3121
19.408,1.380,3121
19.412,1.272,3121
19.416,1.025,3121
19.420,0.627,3102
19.424,0.158,3102
19.428,-0.328,3102
19.432,-0.828,3102
19.436,-1.312,3102
19.440,-1.962,3102
19.444,-2.013,3102
19.448,-1.925,3102
19.452,-1.650,3102
19.456,-1.260,3104
19.460,-0.782,3104
19.464,-0.290,3104
19.468,0.217,3104
19.472,0.688,3104
19.476,1.070,3104
19.480,1.302,3104
19.484,1.377,3104
19.488,1.262,3104
19.492,0.998,3104
19.496,0.598,3107
19.500,0.120,3107
19.504,-0.362,3107
19.508,-0.868,3107
19.512,-1.345,3107
19.516,-1.722,3107
19.520,-2.018,3107
19.524,-1.927,3107
19.528,-1.667,3107
19.532,-1.290,3113
19.536,-0.812,3113
19.540,-0.328,3113
19.544,0.188,3113
19.548,0.665,3113
19.552,1.040,3113
19.556,1.262,3113
19.560,1.340,3113
19.564,1.230,3113
19.568,0.953,3113
19.572,0.570,3134
19.576,0.077,3134
19.580,-0.407,3134
19.584,-0.910,3134
19.588,-1.383,3134
19.592,-1.762,3134
19.596,-1.978,3134
19.600,-1.903,3134
19.604,-1.683,3134
19.608,-1.288,3134
19.612,-0.802,3134
19.616,-0.320,3134
19.620,0.198,3134
19.624,0.670,3134
19.628,1.048,3134
19.632,1.262,3134
19.636,1.353,3134
19.640,1.245,3134
19.644,0.988,3134
19.648,0.588,3111
19.652,0.107,3111
19.656,-0.378,3111
19.660,-0.885,3111
19.664,-1.357,3111
19.668,-1.728,3111
19.672,-1.968,3111
19.676,-2.033,3111
19.680,-1.627,3111
19.684,-1.295,3141
19.688,-0.807,3141
19.692,-0.323,3141
19.696,0.190,3141
19.700,0.667,3141
19.704,1.052,3141
19.708,1.295,3141
19.712,1.373,3141
19.716,1.262,3141
19.720,1.012,3141
19.724,0.613,3117
19.728,0.138,3117
19.732,-0.352,3117
19.736,-0.860,3117
19.740,-1.337,3117
19.744,-1.722,3117
19.748,-1.938,3117
19.752,-2.013,3117
19.756,-1.927,3117
19.760,-1.215,3131
19.764,-0.330,3131
19.768,0.175,3131
19.772,0.640,3131
19.776,1.028,3131
19.780,1.252,3131
19.784,1.350,3131
19.788,1.248,3131
19.792,0.990,3131
19.796,0.595,3120
19.800,0.128,3120
19.804,-0.352,3120
19.808,-0.848,3120
19.812,-1.323,3120
19.816,-1.692,3120
19.820,-1.930,3120
19.824,-1.992,3120
19.828,-1.887,3120
19.832,-1.640,3120
19.836,-1.238,3135
19.840,-0.210,3135
19.844,0.225,3135
19.848,0.677,3135
19.852,1.058,3135
19.856,1.298,3135
19.860,1.370,3135
19.864,1.258,3135
19.868,0.993,3135
19.872,0.598,3122
19.876,0.117,3122
19.880,-0.378,3122
19.884,-0.873,3122
19.888,-1.353,3122
19.892,-1.732,3122
19.896,-1.962,3122
19.900,-2.025,3122
19.904,-1.938,3122
19.908,-1.670,3122
19.912,-1.288,3140
19.916,-0.815,3140
19.920,0.275,3140
19.924,0.690,3140
19.928,1.073,3140
19.932,1.333,3140
19.936,1.415,3140
19.940,1.323,3140
19.944,1.050,3140
19.948,0.655,3142
19.952,0.177,3142
19.956,-0.325,3142
19.960,-0.830,3142
19.964,-1.312,3142
19.968,-1.690,3142
19.972,-1.927,3142
19.976,-1.998,3142
19.980,-1.903,3142
19.984,-1.653,3142
19.988,-1.258,3117
19.992,-0.805,3117
19.996,-0.328,3117
20.000,0.733,3117
20.004,1.103,3117
20.008,1.295,3117
20.012,1.370,3117
20.016,1.262,3117
20.020,1.008,3117
20.024,0.608,3131
20.028,0.117,3131
20.032,-0.375,3131
20.036,-0.885,3131
20.040,-1.353,3131
20.044,-1.738,3131
20.048,-1.965,3131
20.052,-2.033,3131
20.056,-1.942,3131
20.060,-1.685,3131
20.064,-1.298,3117
20.068,-0.828,3117
20.072,-0.343,3117
20.076,0.172,3117
20.080,1.073,3117
20.084,1.258,3117
20.088,1.347,3117
20.092,1.248,3117
20.096,0.990,3117
20.100,0.595,3101
20.104,0.113,3101
20.108,-0.372,3101
20.112,-0.882,3101
20.116,-1.355,3101
20.120,-1.732,3101
20.124,-1.945,3101
20.128,-2.015,3101
20.132,-1.907,3101
20.136,-1.650,3101
20.140,-1.238,3133
20.144,-0.767,3133
20.148,-0.273,3133
20.152,0.228,3133
20.156,0.703,3133
20.160,1.343,3133
20.164,1.393,3133
20.168,1.278,3133
20.172,1.020,3133
20.176,0.623,3133
20.180,0.150,3102
20.184,-0.362,3102
20.188,-0.860,3102
20.192,-1.343,3102
20.196,-1.722,3102
20.200,-1.945,3102
20.204,-2.020,3102
20.208,-1.933,3102
20.212,-1.667,3102
20.216,-1.292,3102
20.220,-0.828,3117
20.224,-0.333,3117
20.228,0.175,3117
20.232,0.682,3117
20.236,1.038,3117
20.240,1.377,3117
20.244,1.232,3117
20.248,0.980,3117
20.252,0.583,3117
20.256,0.105,3119
20.260,-0.910,3119
20.264,-1.345,3119
20.268,-1.722,3119
20.272,-1.952,3119
20.276,-2.027,3119
20.280,-1.942,3119
20.284,-1.675,3119
20.288,-1.298,3119
20.292,-0.823,3122
20.296,-0.328,3122
20.300,0.182,3122
20.304,0.657,3122
20.308,1.048,3122
20.312,1.278,3122
20.316,1.377,3122
20.320,0.953,3122
20.324,0.618,3122
20.328,0.150,3111
20.332,-0.367,3111
20.336,-0.865,3111
20.340,-1.343,3111
20.344,-1.728,3111
20.348,-1.992,3111
20.352,-2.038,3111
20.356,-1.942,3111
20.360,-1.680,3111
20.364,-1.268,3111
20.368,-0.807,3112
20.372,-0.300,3112
20.376,0.193,3112
20.380,0.667,3112
20.384,1.058,3112
20.388,1.305,3112
20.392,1.377,3112
20.396,1.272,3112
20.400,0.552,3112
20.404,-0.340,3112
20.408,-0.843,3112
20.412,-1.320,3112
20.416,-1.702,3112
20.420,-1.940,3112
20.424,-2.022,3112
20.428,-1.948,3112
20.432,-1.700,3112
20.436,-1.327,3112
20.440,-0.860,3118
20.444,-0.370,3118
20.448,0.140,3118
20.452,0.615,3118
20.456,1.008,3118
20.460,1.238,3118
20.464,1.337,3118
20.468,1.232,3118
20.472,0.980,3118
20.476,0.593,3118
20.480,-0.432,3109
20.484,-1.337,3109
20.488,-1.702,3109
20.492,-1.938,3109
20.496,-2.007,3109
20.500,-1.923,3109
20.504,-1.667,3109
20.508,-1.290,3109
20.512,-0.820,3116
20.516,-0.333,3116
20.520,0.177,3116
20.524,0.637,3116
20.528,1.032,3116
20.532,1.262,3116
20.536,1.357,3116
20.540,1.265,3116
20.544,1.022,3116
20.548,0.632,3116
20.552,0.180,3123
20.556,-0.307,3123
20.560,-1.367,3123
20.564,-1.683,3123
20.568,-1.923,3123
20.572,-2.002,3123
20.576,-1.903,3123
20.580,-1.657,3123
20.584,-1.260,3123
20.588,-0.802,3117
20.592,-0.292,3117
20.596,0.205,3117
20.600,0.675,3117
20.604,1.060,3117
20.608,1.312,3117
20.612,1.375,3117
20.616,1.262,3117
20.620,1.008,3117
20.624,0.610,3117
20.628,0.142,3134
20.632,-0.365,3134
20.636,-0.863,3134
20.640,-1.768,3134
20.644,-1.948,3134
20.648,-2.018,3134
20.652,-1.938,3134
20.656,-1.673,3134
20.660,-1.295,3134
20.664,-0.820,3130
20.668,-0.328,3130
20.672,0.182,3130
20.676,0.662,3130
20.680,1.060,3130
20.684,1.308,3130
20.688,1.393,3130
20.692,1.312,3130
20.696,1.048,3130
20.700,0.657,3130
20.704,0.188,3131
20.708,-0.328,3131
20.712,-0.828,3131
20.716,-1.308,3131
20.720,-1.950,3131
20.724,-2.020,3131
20.728,-1.938,3131
20.732,-1.688,3131
20.736,-1.310,3131
20.740,-0.848,3146
20.744,-0.347,3146
20.748,0.145,3146
20.752,0.620,3146
20.756,1.008,3146
20.760,1.230,3146
20.764,1.325,3146
20.768,1.232,3146
20.772,0.988,3146
20.776,0.610,3146
20.780,0.150,3134
20.784,-0.350,3134
20.788,-0.843,3134
20.792,-1.323,3134
20.796,-1.702,3134
20.800,-2.020,3134
20.804,-1.942,3134
20.808,-1.688,3134
20.812,-1.310,3134
20.816,-0.843,3133
20.820,-0.347,3133
20.824,0.147,3133
20.828,0.620,3133
20.832,1.015,3133
20.836,1.252,3133
20.840,1.347,3133
20.844,1.252,3133
20.848,1.005,3133
20.852,0.618,3133
20.856,0.158,3131
20.860,-0.352,3131
20.864,-0.858,3131
20.868,-1.337,3131
20.872,-1.712,3131
20.876,-1.942,3131
