Czas(s),EKG_Surowe(mV),PPG_Surowe(ADC)
0.000,-0.229,3111
0.001,-0.194,3111
0.002,-0.164,3107
0.003,-0.134,3107
0.004,-0.121,3107
0.005,-0.116,3107
0.006,-0.128,3107
0.007,-0.161,3107
0.008,-0.191,3107
0.009,-0.229,3107
0.010,-0.270,3107
0.011,-0.306,3107
0.012,-0.334,3107
0.013,-0.354,3107
0.014,-0.357,3107
0.015,-0.356,3107
0.016,-0.346,3107
0.017,-0.329,3107
0.018,-0.299,3107
0.019,-0.266,3107
0.020,-0.189,3107
0.021,-0.166,3120
0.022,-0.136,3120
0.023,-0.126,3120
0.024,-0.124,3120
0.025,-0.131,3120
0.026,-0.151,3120
0.027,-0.184,3120
0.028,-0.216,3120
0.029,-0.255,3120
0.030,-0.289,3120
0.031,-0.323,3120
0.032,-0.344,3124
0.033,-0.354,3124
0.034,-0.355,3124
0.035,-0.345,3124
0.036,-0.326,3124
0.037,-0.292,3124
0.038,-0.254,3124
0.039,-0.212,3124
0.040,-0.139,3094
0.041,-0.121,3094
0.042,-0.120,3094
0.043,-0.129,3094
0.044,-0.146,3094
0.045,-0.181,3094
0.046,-0.209,3094
0.047,-0.246,3094
0.048,-0.281,3094
0.049,-0.309,3094
0.050,-0.331,3095
0.051,-0.356,3095
0.052,-0.347,3095
0.053,-0.344,3095
0.054,-0.329,3095
0.055,-0.296,3095
0.056,-0.266,3095
0.057,-0.230,3095
0.058,-0.201,3095
0.059,-0.171,3095
0.060,-0.131,3102
0.061,-0.135,3102
0.062,-0.161,3102
0.063,-0.186,3102
0.064,-0.217,3102
0.065,-0.256,3102
0.066,-0.287,3102
0.067,-0.311,3102
0.068,-0.333,3089
0.069,-0.346,3089
0.070,-0.349,3089
0.071,-0.336,3089
0.072,-0.311,3089
0.073,-0.276,3089
0.074,-0.230,3089
0.075,-0.193,3089
0.076,-0.149,3089
0.077,-0.116,3089
0.078,-0.094,3094
0.079,-0.081,3094
0.080,-0.124,3094
0.081,-0.120,3094
0.082,-0.145,3094
0.083,-0.181,3094
0.084,-0.225,3094
0.085,-0.266,3094
0.086,-0.297,3094
0.087,-0.329,3121
0.088,-0.344,3121
0.089,-0.349,3121
0.090,-0.344,3121
0.091,-0.326,3121
0.092,-0.294,3121
0.093,-0.264,3121
0.094,-0.229,3121
0.095,-0.193,3121
0.096,-0.169,3121
0.097,-0.142,3102
0.098,-0.131,3102
0.099,-0.131,3102
0.100,-0.161,3102
0.101,-0.181,3102
0.102,-0.210,3102
0.103,-0.245,3102
0.104,-0.276,3102
0.105,-0.301,3102
0.106,-0.324,3100
0.107,-0.334,3100
0.108,-0.336,3100
0.109,-0.329,3100
0.110,-0.309,3100
0.111,-0.289,3100
0.112,-0.261,3100
0.113,-0.226,3100
0.114,-0.194,3100
0.115,-0.171,3100
0.116,-0.146,3120
0.117,-0.135,3120
0.118,-0.131,3120
0.119,-0.135,3120
0.120,-0.181,3120
0.121,-0.206,3120
0.122,-0.233,3120
0.123,-0.263,3120
0.124,-0.284,3120
0.125,-0.301,3111
0.126,-0.311,3111
0.127,-0.311,3111
0.128,-0.309,3111
0.129,-0.290,3111
0.130,-0.265,3111
0.131,-0.231,3111
0.132,-0.194,3111
0.133,-0.164,3111
0.134,-0.131,3111
0.135,-0.111,3109
0.136,-0.101,3109
0.137,-0.104,3109
0.138,-0.111,3109
0.139,-0.130,3109
0.140,-0.191,3109
0.141,-0.229,3109
0.142,-0.265,3109
0.143,-0.349,3109
0.144,-0.269,3126
0.145,-0.320,3126
0.146,-0.323,3126
0.147,-0.321,3126
0.148,-0.289,3126
0.149,-0.263,3126
0.150,-0.226,3126
0.151,-0.195,3126
0.152,-0.169,3126
0.153,-0.141,3126
0.154,-0.121,3094
0.155,-0.111,3094
0.156,-0.111,3094
0.157,-0.121,3094
0.158,-0.139,3094
0.159,-0.170,3094
0.160,-0.231,3094
0.161,-0.256,3094
0.162,-0.275,3094
0.163,-0.289,3128
0.164,-0.290,3128
0.165,-0.285,3128
0.166,-0.273,3128
0.167,-0.255,3128
0.168,-0.231,3128
0.169,-0.203,3128
0.170,-0.171,3128
0.171,-0.145,3128
0.172,-0.126,3128
0.173,-0.111,3103
0.174,-0.106,3103
0.175,-0.161,3103
0.176,-0.121,3103
0.177,-0.151,3103
0.178,-0.185,3103
0.179,-0.221,3103
0.180,-0.297,3103
0.181,-0.329,3103
0.182,-0.334,3135
0.183,-0.341,3135
0.184,-0.331,3135
0.185,-0.311,3135
0.186,-0.294,3135
0.187,-0.268,3135
0.188,-0.231,3135
0.189,-0.194,3135
0.190,-0.161,3135
0.191,-0.126,3135
0.192,-0.104,3079
0.193,-0.092,3079
0.194,-0.089,3079
0.195,-0.096,3079
0.196,-0.111,3079
0.197,-0.131,3079
0.198,-0.165,3079
0.199,-0.194,3079
0.200,-0.254,3079
0.201,-0.269,3132
0.202,-0.276,3132
0.203,-0.274,3132
0.204,-0.261,3132
0.205,-0.244,3132
0.206,-0.271,3132
0.207,-0.181,3132
0.208,-0.149,3132
0.209,-0.125,3132
0.210,-0.094,3132
0.211,-0.081,3112
0.212,-0.066,3112
0.213,-0.065,3112
0.214,-0.069,3112
0.215,-0.091,3112
0.216,-0.114,3112
0.217,-0.146,3112
0.218,-0.185,3112
0.219,-0.210,3112
0.220,-0.247,3102
0.221,-0.247,3102
0.222,-0.231,3102
0.223,-0.211,3102
0.224,-0.184,3102
0.225,-0.145,3102
0.226,-0.109,3102
0.227,-0.083,3102
0.228,-0.051,3102
0.229,-0.031,3101
0.230,-0.025,3101
0.231,-0.026,3101
0.232,-0.031,3101
0.233,-0.046,3101
0.234,-0.066,3101
0.235,-0.091,3101
0.236,-0.121,3101
0.237,-0.141,3101
0.238,-0.125,3101
0.239,-0.169,3102
0.240,-0.152,3102
0.241,-0.141,3102
0.242,-0.116,3102
0.243,-0.091,3102
0.244,-0.064,3102
0.245,-0.036,3102
0.246,-0.011,3102
0.247,0.014,3102
0.248,0.025,3086
0.249,0.028,3086
0.250,0.021,3086
0.251,-0.009,3086
0.252,-0.035,3086
0.253,-0.070,3086
0.254,-0.111,3086
0.255,-0.146,3086
0.256,-0.184,3086
0.257,-0.211,3086
0.258,-0.233,3113
0.259,-0.254,3113
0.260,-0.254,3113
0.261,-0.241,3113
0.262,-0.216,3113
0.263,-0.189,3113
0.264,-0.161,3113
0.265,-0.129,3113
0.266,-0.104,3113
0.267,-0.091,3113
0.268,-0.090,3100
0.269,-0.101,3100
0.270,-0.121,3100
0.271,-0.139,3100
0.272,-0.174,3100
0.273,-0.205,3100
0.274,-0.244,3100
0.275,-0.273,3100
0.276,-0.294,3100
0.277,-0.312,3100
0.278,-0.328,3094
0.279,-0.329,3094
0.280,-0.306,3094
0.281,-0.287,3094
0.282,-0.264,3094
0.283,-0.234,3094
0.284,-0.207,3094
0.285,-0.184,3094
0.286,-0.169,3094
0.287,-0.150,3105
0.288,-0.161,3105
0.289,-0.170,3105
0.290,-0.186,3105
0.291,-0.206,3105
0.292,-0.233,3105
0.293,-0.263,3105
0.294,-0.286,3105
0.295,-0.312,3105
0.296,-0.333,3105
0.297,-0.345,3095
0.298,-0.341,3095
0.299,-0.334,3095
0.300,-0.296,3095
0.301,-0.265,3095
0.302,-0.250,3095
0.303,-0.226,3095
0.304,-0.196,3095
0.305,-0.189,3095
0.306,-0.184,3105
0.307,-0.181,3105
0.308,-0.186,3105
0.309,-0.204,3105
0.310,-0.226,3105
0.311,-0.256,3105
0.312,-0.285,3105
0.313,-0.309,3105
0.314,-0.336,3105
0.315,-0.352,3105
0.316,-0.359,3127
0.317,-0.357,3127
0.318,-0.351,3127
0.319,-0.331,3127
0.320,-0.266,3127
0.321,-0.234,3127
0.322,-0.194,3127
0.323,-0.164,3127
0.324,-0.136,3127
0.325,-0.125,3090
0.326,-0.126,3090
0.327,-0.139,3090
0.328,-0.164,3090
0.329,-0.189,3090
0.330,-0.223,3090
0.331,-0.261,3090
0.332,-0.291,3090
0.333,-0.324,3090
0.334,-0.344,3090
0.335,-0.352,3093
0.336,-0.356,3093
0.337,-0.344,3093
0.338,-0.329,3093
0.339,-0.292,3093
0.340,-0.216,3093
0.341,-0.191,3093
0.342,-0.166,3093
0.343,-0.146,3093
0.344,-0.144,3099
0.345,-0.151,3099
0.346,-0.175,3099
0.347,-0.204,3099
0.348,-0.241,3099
0.349,-0.280,3099
0.350,-0.320,3099
0.351,-0.356,3099
0.352,-0.390,3099
0.353,-0.425,3099
0.354,-0.446,3099
0.355,-0.456,3099
0.356,-0.455,3099
0.357,-0.441,3099
0.358,-0.421,3099
0.359,-0.376,3099
0.360,-0.281,3099
0.361,-0.244,3099
0.362,-0.204,3099
0.363,-0.144,3099
0.364,-0.110,3099
0.365,-0.066,3099
0.366,-0.036,3099
0.367,0.011,3099
0.368,0.065,3099
0.369,0.124,3099
0.370,0.190,3099
0.371,0.306,3099
0.372,0.380,3099
0.373,0.507,3129
0.374,0.811,3129
0.375,0.944,3129
0.376,1.099,3129
0.377,1.302,3129
0.378,1.529,3129
0.379,1.774,3129
0.380,2.305,3129
0.381,2.467,3102
0.382,2.559,3102
0.383,2.559,3102
0.384,2.559,3102
0.385,2.475,3102
0.386,2.330,3102
0.387,2.136,3102
0.388,1.930,3102
0.389,1.696,3102
0.390,1.474,3102
0.391,1.252,3091
0.392,1.046,3091
0.393,0.854,3091
0.394,0.679,3091
0.395,0.515,3091
0.396,0.379,3091
0.397,0.256,3091
0.398,0.139,3091
0.399,0.050,3091
0.400,-0.141,3110
0.401,-0.289,3110
0.402,-0.369,3110
0.403,-0.434,3110
0.404,-0.495,3110
0.405,-0.547,3110
0.406,-0.591,3110
0.407,-0.624,3110
0.408,-0.651,3110
0.409,-0.661,3098
0.410,-0.656,3098
0.411,-0.631,3098
0.412,-0.606,3098
0.413,-0.568,3098
0.414,-0.526,3098
0.415,-0.481,3098
0.416,-0.434,3098
0.417,-0.390,3098
0.418,-0.356,3098
0.419,-0.336,3117
0.420,-0.331,3117
0.421,-0.341,3117
0.422,-0.355,3117
0.423,-0.370,3117
0.424,-0.405,3117
0.425,-0.431,3117
0.426,-0.454,3117
0.427,-0.481,3117
0.428,-0.486,3114
0.429,-0.484,3114
0.430,-0.466,3114
0.431,-0.446,3114
0.432,-0.421,3114
0.433,-0.386,3114
0.434,-0.351,3114
0.435,-0.321,3114
0.436,-0.289,3114
0.437,-0.265,3114
0.438,-0.254,3104
0.439,-0.254,3104
0.440,-0.284,3104
0.441,-0.305,3104
0.442,-0.335,3104
0.443,-0.364,3104
0.444,-0.386,3104
0.445,-0.414,3104
0.446,-0.429,3104
0.447,-0.441,3113
0.448,-0.444,3113
0.449,-0.436,3113
0.450,-0.425,3113
0.451,-0.404,3113
0.452,-0.372,3113
0.453,-0.345,3113
0.454,-0.314,3113
0.455,-0.286,3113
0.456,-0.269,3113
0.457,-0.256,3115
0.458,-0.253,3115
0.459,-0.265,3115
0.460,-0.296,3115
0.461,-0.324,3115
0.462,-0.349,3115
0.463,-0.374,3115
0.464,-0.401,3115
0.465,-0.409,3115
0.466,-0.404,3125
0.467,-0.391,3125
0.468,-0.376,3125
0.469,-0.356,3125
0.470,-0.333,3125
0.471,-0.304,3125
0.472,-0.276,3125
0.473,-0.254,3125
0.474,-0.231,3125
0.475,-0.216,3125
0.476,-0.210,3114
0.477,-0.212,3114
0.478,-0.224,3114
0.479,-0.244,3114
0.480,-0.301,3114
0.481,-0.330,3114
0.482,-0.350,3114
0.483,-0.369,3114
0.484,-0.374,3114
0.485,-0.376,3110
0.486,-0.376,3110
0.487,-0.362,3110
0.488,-0.344,3110
0.489,-0.314,3110
0.490,-0.286,3110
0.491,-0.254,3110
0.492,-0.216,3110
0.493,-0.189,3110
0.494,-0.166,3110
0.495,-0.150,3112
0.496,-0.150,3112
0.497,-0.166,3112
0.498,-0.181,3112
0.499,-0.206,3112
0.500,-0.275,3112
0.501,-0.294,3112
0.502,-0.344,3112
0.503,-0.349,3103
0.504,-0.346,3103
0.505,-0.334,3103
0.506,-0.306,3103
0.507,-0.286,3103
0.508,-0.261,3103
0.509,-0.229,3103
0.510,-0.198,3103
0.511,-0.172,3103
0.512,-0.145,3103
0.513,-0.131,3102
0.514,-0.130,3102
0.515,-0.136,3102
0.516,-0.152,3102
0.517,-0.241,3102
0.518,-0.205,3102
0.519,-0.231,3102
0.520,-0.285,3102
0.521,-0.321,3102
0.522,-0.311,3100
0.523,-0.305,3100
0.524,-0.287,3100
0.525,-0.269,3100
0.526,-0.241,3100
0.527,-0.206,3100
0.528,-0.181,3100
0.529,-0.152,3100
0.530,-0.134,3100
0.531,-0.129,3100
0.532,-0.130,3123
0.533,-0.144,3123
0.534,-0.164,3123
0.535,-0.189,3123
0.536,-0.221,3123
0.537,-0.250,3123
0.538,-0.275,3123
0.539,-0.290,3123
0.540,-0.294,3102
0.541,-0.261,3102
0.542,-0.231,3102
0.543,-0.196,3102
0.544,-0.152,3102
0.545,-0.121,3102
0.546,-0.070,3102
0.547,-0.051,3102
0.548,-0.031,3102
0.549,-0.024,3102
0.550,-0.024,3095
0.551,-0.035,3095
0.552,-0.064,3095
0.553,-0.104,3095
0.554,-0.142,3095
0.555,-0.186,3095
0.556,-0.214,3095
0.557,-0.234,3095
0.558,-0.251,3095
0.559,-0.254,3095
0.560,-0.231,3098
0.561,-0.172,3098
0.562,-0.131,3098
0.563,-0.101,3098
0.564,-0.069,3098
0.565,-0.041,3098
0.566,-0.024,3098
0.567,-0.013,3098
0.568,-0.016,3096
0.569,-0.029,3096
0.570,-0.049,3096
0.571,-0.074,3096
0.572,-0.109,3096
0.573,-0.138,3096
0.574,-0.171,3096
0.575,-0.190,3096
0.576,-0.204,3096
0.577,-0.205,3096
0.578,-0.196,3095
0.579,-0.176,3095
0.580,-0.111,3095
0.581,-0.085,3095
0.582,-0.046,3095
0.583,-0.013,3095
0.584,0.024,3095
0.585,0.039,3095
0.586,0.045,3095
0.587,0.040,3091
0.588,0.026,3091
0.589,0.006,3091
0.590,-0.026,3091
0.591,-0.059,3091
0.592,-0.094,3091
0.593,-0.126,3091
0.594,-0.151,3091
0.595,-0.168,3091
0.596,-0.171,3091
0.597,-0.164,3059
0.598,-0.144,3059
0.599,-0.121,3059
0.600,-0.049,3059
0.601,-0.021,3059
0.602,0.014,3059
0.603,0.034,3059
0.604,0.049,3059
0.605,0.056,3059
0.606,0.051,3087
0.607,0.036,3087
0.608,0.019,3087
0.609,-0.022,3087
0.610,-0.056,3087
0.611,-0.090,3087
0.612,-0.111,3087
0.613,-0.134,3087
0.614,-0.149,3087
0.615,-0.161,3087
0.616,-0.163,3099
0.617,-0.149,3099
0.618,-0.130,3099
0.619,-0.106,3099
0.620,-0.041,3099
0.621,0.013,3099
0.622,0.022,3099
0.623,0.034,3099
0.624,0.031,3102
0.625,0.010,3102
0.626,-0.015,3102
0.627,-0.046,3102
0.628,-0.089,3102
0.629,-0.129,3102
0.630,-0.174,3102
0.631,-0.211,3102
0.632,-0.244,3102
0.633,-0.261,3102
0.634,-0.268,3107
0.635,-0.264,3107
0.636,-0.251,3107
0.637,-0.226,3107
0.638,-0.198,3107
0.639,-0.171,3107
0.640,-0.114,3107
0.641,-0.106,3107
0.642,-0.104,3107
0.643,-0.107,3113
0.644,-0.131,3113
0.645,-0.164,3113
0.646,-0.198,3113
0.647,-0.246,3113
0.648,-0.289,3113
0.649,-0.329,3113
0.650,-0.356,3113
0.651,-0.383,3113
0.652,-0.401,3113
0.653,-0.404,3117
0.654,-0.391,3117
0.655,-0.376,3117
0.656,-0.354,3117
0.657,-0.331,3117
0.658,-0.301,3117
0.659,-0.276,3117
0.660,-0.249,3117
0.661,-0.241,3117
0.662,-0.246,3123
0.663,-0.264,3123
0.664,-0.286,3123
0.665,-0.323,3123
0.666,-0.354,3123
0.667,-0.390,3123
0.668,-0.427,3123
0.669,-0.451,3123
0.670,-0.466,3123
0.671,-0.471,3123
0.672,-0.461,3099
0.673,-0.443,3099
0.674,-0.409,3099
0.675,-0.370,3099
0.676,-0.330,3099
0.677,-0.294,3099
0.678,-0.261,3099
0.679,-0.234,3099
0.680,-0.241,3099
0.681,-0.254,3128
0.682,-0.286,3128
0.683,-0.324,3128
0.684,-0.361,3128
0.685,-0.401,3128
0.686,-0.434,3128
0.687,-0.474,3128
0.688,-0.495,3128
0.689,-0.514,3128
0.690,-0.516,3128
0.691,-0.506,3097
0.692,-0.486,3097
0.693,-0.451,3097
0.694,-0.421,3097
0.695,-0.374,3097
0.696,-0.334,3097
0.697,-0.296,3097
0.698,-0.268,3097
0.699,-0.249,3097
0.700,-0.244,3117
0.701,-0.274,3117
0.702,-0.304,3117
0.703,-0.334,3117
0.704,-0.364,3117
0.705,-0.391,3117
0.706,-0.415,3117
0.707,-0.434,3117
0.708,-0.436,3117
0.709,-0.431,3104
0.710,-0.416,3104
0.711,-0.391,3104
0.712,-0.365,3104
0.713,-0.334,3104
0.714,-0.305,3104
0.715,-0.284,3104
0.716,-0.265,3104
0.717,-0.251,3104
0.718,-0.245,3104
0.719,-0.250,3120
0.720,-0.281,3120
0.721,-0.297,3120
0.722,-0.334,3120
0.723,-0.369,3120
0.724,-0.401,3120
0.725,-0.434,3120
0.726,-0.440,3120
0.727,-0.446,3120
0.728,-0.444,3094
0.729,-0.434,3094
0.730,-0.416,3094
0.731,-0.384,3094
0.732,-0.310,3094
0.733,-0.304,3094
0.734,-0.271,3094
0.735,-0.249,3094
0.736,-0.229,3094
0.737,-0.224,3094
0.738,-0.224,3120
0.739,-0.244,3120
0.740,-0.294,3120
0.741,-0.364,3120
0.742,-0.389,3120
0.743,-0.414,3120
0.744,-0.429,3120
0.745,-0.430,3120
0.746,-0.426,3107
0.747,-0.410,3107
0.748,-0.384,3107
0.749,-0.351,3107
0.750,-0.321,3107
0.751,-0.285,3107
0.752,-0.249,3107
0.753,-0.216,3107
0.754,-0.196,3107
0.755,-0.186,3107
0.756,-0.186,3097
0.757,-0.201,3097
0.758,-0.224,3097
0.759,-0.260,3097
0.760,-0.336,3097
0.761,-0.369,3097
0.762,-0.400,3097
0.763,-0.411,3097
0.764,-0.414,3097
0.765,-0.411,3097
0.766,-0.390,3105
0.767,-0.364,3105
0.768,-0.330,3105
0.769,-0.291,3105
0.770,-0.256,3105
0.771,-0.224,3105
0.772,-0.193,3105
0.773,-0.174,3105
0.774,-0.166,3105
0.775,-0.169,3105
0.776,-0.184,3101
0.777,-0.204,3101
0.778,-0.231,3101
0.779,-0.266,3101
0.780,-0.336,3101
0.781,-0.383,3101
0.782,-0.389,3101
0.783,-0.389,3101
0.784,-0.378,3105
0.785,-0.354,3105
0.786,-0.324,3105
0.787,-0.286,3105
0.788,-0.250,3105
0.789,-0.214,3105
0.790,-0.189,3105
0.791,-0.171,3105
0.792,-0.165,3105
0.793,-0.169,3105
0.794,-0.184,3104
0.795,-0.206,3104
0.796,-0.230,3104
0.797,-0.263,3104
0.798,-0.290,3104
0.799,-0.311,3104
0.800,-0.349,3104
0.801,-0.354,3104
0.802,-0.349,3104
0.803,-0.333,3100
0.804,-0.306,3100
0.805,-0.264,3100
0.806,-0.231,3100
0.807,-0.196,3100
0.808,-0.174,3100
0.809,-0.154,3100
0.810,-0.141,3100
0.811,-0.135,3100
0.812,-0.144,3100
0.813,-0.166,3094
0.814,-0.185,3094
0.815,-0.211,3094
0.816,-0.246,3094
0.817,-0.281,3094
0.818,-0.311,3094
0.819,-0.346,3094
0.820,-0.378,3094
0.821,-0.383,3094
0.822,-0.374,3101
0.823,-0.351,3101
0.824,-0.324,3101
0.825,-0.281,3101
0.826,-0.241,3101
0.827,-0.201,3101
0.828,-0.169,3101
0.829,-0.144,3101
0.830,-0.133,3101
0.831,-0.131,3101
0.832,-0.147,3107
0.833,-0.172,3107
0.834,-0.201,3107
0.835,-0.241,3107
0.836,-0.271,3107
0.837,-0.304,3107
0.838,-0.330,3107
0.839,-0.341,3107
0.840,-0.344,3107
0.841,-0.309,3103
0.842,-0.261,3103
0.843,-0.224,3103
0.844,-0.191,3103
0.845,-0.169,3103
0.846,-0.149,3103
0.847,-0.144,3103
0.848,-0.144,3103
0.849,-0.163,3103
0.850,-0.181,3109
0.851,-0.210,3109
0.852,-0.244,3109
0.853,-0.281,3109
0.854,-0.311,3109
0.855,-0.346,3109
0.856,-0.371,3109
0.857,-0.386,3109
0.858,-0.389,3109
0.859,-0.383,3109
0.860,-0.326,3109
0.861,-0.255,3109
0.862,-0.221,3109
0.863,-0.191,3109
0.864,-0.165,3109
0.865,-0.150,3109
0.866,-0.146,3109
0.867,-0.152,3109
0.868,-0.172,3098
0.869,-0.198,3098
0.870,-0.229,3098
0.871,-0.255,3098
0.872,-0.294,3098
0.873,-0.330,3098
0.874,-0.354,3098
0.875,-0.370,3098
0.876,-0.376,3098
0.877,-0.372,3098
0.878,-0.361,3109
0.879,-0.334,3109
0.880,-0.263,3109
0.881,-0.230,3109
0.882,-0.198,3109
0.883,-0.174,3109
0.884,-0.161,3109
0.885,-0.164,3109
0.886,-0.160,3109
0.887,-0.174,3118
0.888,-0.196,3118
0.889,-0.226,3118
0.890,-0.261,3118
0.891,-0.291,3118
0.892,-0.324,3118
0.893,-0.349,3118
0.894,-0.370,3118
0.895,-0.376,3118
0.896,-0.369,3118
0.897,-0.354,3113
0.898,-0.325,3113
0.899,-0.289,3113
0.900,-0.204,3113
0.901,-0.176,3113
0.902,-0.146,3113
0.903,-0.130,3113
0.904,-0.124,3113
0.905,-0.130,3113
0.906,-0.146,3119
0.907,-0.171,3119
0.908,-0.206,3119
0.909,-0.234,3119
0.910,-0.274,3119
0.911,-0.311,3119
0.912,-0.343,3119
0.913,-0.364,3119
0.914,-0.374,3119
0.915,-0.371,3119
0.916,-0.354,3103
0.917,-0.329,3103
0.918,-0.295,3103
0.919,-0.256,3103
0.920,-0.184,3103
0.921,-0.164,3103
0.922,-0.146,3103
0.923,-0.145,3103
0.924,-0.150,3103
0.925,-0.168,3135
0.926,-0.186,3135
0.927,-0.211,3135
0.928,-0.249,3135
0.929,-0.271,3135
0.930,-0.294,3135
0.931,-0.311,3135
0.932,-0.329,3135
0.933,-0.335,3135
0.934,-0.334,3135
0.935,-0.324,3099
0.936,-0.305,3099
0.937,-0.278,3099
0.938,-0.253,3099
0.939,-0.225,3099
0.940,-0.169,3099
0.941,-0.152,3099
0.942,-0.144,3099
0.943,-0.142,3099
0.944,-0.149,3122
0.945,-0.170,3122
0.946,-0.194,3122
0.947,-0.226,3122
0.948,-0.261,3122
0.949,-0.291,3122
0.950,-0.312,3122
0.951,-0.334,3122
0.952,-0.343,3122
0.953,-0.334,3122
0.954,-0.324,3108
0.955,-0.291,3108
0.956,-0.260,3108
0.957,-0.216,3108
0.958,-0.184,3108
0.959,-0.146,3108
0.960,-0.101,3108
0.961,-0.094,3108
0.962,-0.094,3108
0.963,-0.106,3115
0.964,-0.129,3115
0.965,-0.161,3115
0.966,-0.196,3115
0.967,-0.234,3115
0.968,-0.274,3115
0.969,-0.301,3115
0.970,-0.324,3115
0.971,-0.329,3115
0.972,-0.330,3115
0.973,-0.324,3107
0.974,-0.304,3107
0.975,-0.278,3107
0.976,-0.249,3107
0.977,-0.214,3107
0.978,-0.174,3107
0.979,-0.165,3107
0.980,-0.144,3107
0.981,-0.154,3114
0.982,-0.181,3114
0.983,-0.206,3114
0.984,-0.231,3114
0.985,-0.265,3114
0.986,-0.290,3114
0.987,-0.309,3114
0.988,-0.321,3114
0.989,-0.324,3114
0.990,-0.309,3114
0.991,-0.289,3119
0.992,-0.264,3119
0.993,-0.230,3119
0.994,-0.195,3119
0.995,-0.168,3119
0.996,-0.141,3119
0.997,-0.122,3119
0.998,-0.113,3119
0.999,-0.114,3119
1.000,-0.144,3111
1.001,-0.204,3111
1.002,-0.244,3111
1.003,-0.270,3111
1.004,-0.300,3111
1.005,-0.324,3111
1.006,-0.330,3111
1.007,-0.329,3111
1.008,-0.306,3111
1.009,-0.286,3105
1.010,-0.263,3105
1.011,-0.228,3105
1.012,-0.196,3105
1.013,-0.169,3105
1.014,-0.141,3105
1.015,-0.120,3105
1.016,-0.096,3105
1.017,-0.090,3105
1.018,-0.090,3105
1.019,-0.104,3105
1.020,-0.164,3097
1.021,-0.224,3097
1.022,-0.261,3097
1.023,-0.282,3097
1.024,-0.297,3097
1.025,-0.306,3097
1.026,-0.296,3097
1.027,-0.285,3097
1.028,-0.256,3112
1.029,-0.217,3112
1.030,-0.186,3112
1.031,-0.147,3112
1.032,-0.116,3112
1.033,-0.100,3112
1.034,-0.085,3112
1.035,-0.080,3112
1.036,-0.089,3112
1.037,-0.106,3112
1.038,-0.133,3093
1.039,-0.168,3093
1.040,-0.230,3093
1.041,-0.255,3093
1.042,-0.264,3093
1.043,-0.271,3093
1.044,-0.274,3093
1.045,-0.264,3093
1.046,-0.244,3093
1.047,-0.211,3097
1.048,-0.171,3097
1.049,-0.126,3097
1.050,-0.090,3097
1.051,-0.055,3097
1.052,-0.031,3097
1.053,-0.014,3097
1.054,-0.006,3097
1.055,-0.011,3097
1.056,-0.029,3097
1.057,-0.054,3090
1.058,-0.090,3090
1.059,-0.128,3090
1.060,-0.205,3090
1.061,-0.226,3090
1.062,-0.246,3090
1.063,-0.249,3090
1.064,-0.244,3090
1.065,-0.224,3090
1.066,-0.201,3104
1.067,-0.171,3104
1.068,-0.144,3104
1.069,-0.114,3104
1.070,-0.091,3104
1.071,-0.069,3104
1.072,-0.044,3104
1.073,-0.044,3104
1.074,-0.045,3104
1.075,-0.051,3111
1.076,-0.066,3111
1.077,-0.085,3111
1.078,-0.109,3111
1.079,-0.129,3111
1.080,-0.161,3111
1.081,-0.161,3111
1.082,-0.149,3111
1.083,-0.135,3111
1.084,-0.109,3117
1.085,-0.081,3117
1.086,-0.046,3117
1.087,-0.014,3117
1.088,0.019,3117
1.089,0.036,3117
1.090,0.045,3117
1.091,0.037,3117
1.092,0.024,3117
1.093,-0.011,3117
1.094,-0.043,3113
1.095,-0.086,3113
1.096,-0.120,3113
1.097,-0.161,3113
1.098,-0.190,3113
1.099,-0.221,3113
1.100,-0.254,3113
1.101,-0.244,3113
1.102,-0.234,3113
1.103,-0.211,3065
1.104,-0.186,3065
1.105,-0.149,3065
1.106,-0.117,3065
1.107,-0.085,3065
1.108,-0.055,3065
1.109,-0.036,3065
1.110,-0.036,3065
1.111,-0.051,3065
1.112,-0.087,3065
1.113,-0.125,3089
1.114,-0.171,3089
1.115,-0.217,3089
1.116,-0.264,3089
1.117,-0.296,3089
1.118,-0.329,3089
1.119,-0.346,3089
1.120,-0.336,3089
1.121,-0.328,3089
1.122,-0.296,3100
1.123,-0.266,3100
1.124,-0.229,3100
1.125,-0.201,3100
1.126,-0.169,3100
1.127,-0.141,3100
1.128,-0.129,3100
1.129,-0.125,3100
1.130,-0.124,3100
1.131,-0.135,3100
1.132,-0.151,3116
1.133,-0.184,3116
1.134,-0.210,3116
1.135,-0.244,3116
1.136,-0.274,3116
1.137,-0.296,3116
1.138,-0.314,3116
1.139,-0.324,3116
1.140,-0.291,3116
1.141,-0.271,3115
1.142,-0.247,3115
1.143,-0.211,3115
1.144,-0.184,3115
1.145,-0.160,3115
1.146,-0.134,3115
1.147,-0.129,3115
1.148,-0.130,3115
1.149,-0.144,3115
1.150,-0.166,3115
1.151,-0.194,3109
1.152,-0.226,3109
1.153,-0.263,3109
1.154,-0.291,3109
1.155,-0.321,3109
1.156,-0.336,3109
1.157,-0.344,3109
1.158,-0.341,3109
1.159,-0.329,3109
1.160,-0.269,3115
1.161,-0.203,3115
1.162,-0.171,3115
1.163,-0.142,3115
1.164,-0.124,3115
1.165,-0.110,3115
1.166,-0.106,3115
1.167,-0.110,3115
1.168,-0.129,3115
1.169,-0.152,3113
1.170,-0.186,3113
1.171,-0.216,3113
1.172,-0.254,3113
1.173,-0.276,3113
1.174,-0.297,3113
1.175,-0.306,3113
1.176,-0.306,3113
1.177,-0.294,3113
1.178,-0.276,3113
1.179,-0.251,3123
1.180,-0.175,3123
1.181,-0.149,3123
1.182,-0.125,3123
1.183,-0.109,3123
1.184,-0.104,3123
1.185,-0.111,3123
1.186,-0.134,3123
1.187,-0.171,3123
1.188,-0.206,3110
1.189,-0.256,3110
1.190,-0.309,3110
1.191,-0.361,3110
1.192,-0.407,3110
1.193,-0.444,3110
1.194,-0.469,3110
1.195,-0.484,3110
1.196,-0.484,3110
1.197,-0.455,3110
1.198,-0.426,3123
1.199,-0.384,3123
1.200,-0.271,3123
1.201,-0.221,3123
1.202,-0.151,3123
1.203,-0.095,3123
1.204,-0.029,3123
1.205,0.036,3123
1.206,0.107,3123
1.207,0.182,3103
1.208,0.263,3103
1.209,0.344,3103
1.210,0.431,3103
1.211,0.526,3103
1.212,0.634,3103
1.213,0.754,3103
1.214,0.892,3103
1.215,1.039,3103
1.216,1.219,3103
1.217,1.423,3111
1.218,1.657,3111
1.219,1.899,3111
1.220,2.422,3111
1.221,2.559,3111
1.222,2.559,3111
1.223,2.559,3111
1.224,2.559,3111
1.225,2.509,3111
1.226,2.349,3098
1.227,2.171,3098
1.228,1.914,3098
1.229,1.666,3098
1.230,1.434,3098
1.231,1.199,3098
1.232,0.985,3098
1.233,0.779,3098
1.234,0.591,3098
1.235,0.429,3098
1.236,0.289,3099
1.237,0.159,3099
1.238,0.064,3099
1.239,-0.025,3099
1.240,-0.170,3099
1.241,-0.216,3099
1.242,-0.274,3099
1.243,-0.329,3099
1.244,-0.384,3099
1.245,-0.431,3097
1.246,-0.487,3097
1.247,-0.535,3097
1.248,-0.585,3097
1.249,-0.626,3097
1.250,-0.654,3097
1.251,-0.670,3097
1.252,-0.671,3097
1.253,-0.660,3097
1.254,-0.619,3097
1.255,-0.575,3125
1.256,-0.525,3125
1.257,-0.466,3125
1.258,-0.409,3125
1.259,-0.355,3125
1.260,-0.302,3125
1.261,-0.292,3125
1.262,-0.299,3125
1.263,-0.320,3125
1.264,-0.343,3125
1.265,-0.401,3108
1.266,-0.456,3108
1.267,-0.500,3108
1.268,-0.517,3108
1.269,-0.516,3108
1.270,-0.509,3108
1.271,-0.485,3108
1.272,-0.456,3108
1.273,-0.426,3089
1.274,-0.388,3089
1.275,-0.364,3089
1.276,-0.335,3089
1.277,-0.304,3089
1.278,-0.294,3089
1.279,-0.291,3089
1.280,-0.323,3089
1.281,-0.346,3089
1.282,-0.371,3090
1.283,-0.406,3090
1.284,-0.441,3090
1.285,-0.468,3090
1.286,-0.494,3090
1.287,-0.510,3090
1.288,-0.510,3090
1.289,-0.495,3090
1.290,-0.469,3090
1.291,-0.440,3090
1.292,-0.404,3110
1.293,-0.365,3110
1.294,-0.328,3110
1.295,-0.295,3110
1.296,-0.271,3110
1.297,-0.258,3110
1.298,-0.260,3110
1.299,-0.269,3110
1.300,-0.311,3101
1.301,-0.371,3101
1.302,-0.406,3101
1.303,-0.430,3101
1.304,-0.451,3101
1.305,-0.464,3101
1.306,-0.466,3101
1.307,-0.456,3101
1.308,-0.441,3101
1.309,-0.415,3101
1.310,-0.384,3070
1.311,-0.345,3070
1.312,-0.302,3070
1.313,-0.266,3070
1.314,-0.231,3070
1.315,-0.210,3070
1.316,-0.206,3070
1.317,-0.211,3070
1.318,-0.226,3070
1.319,-0.254,3070
1.320,-0.330,3085
1.321,-0.384,3085
1.322,-0.411,3085
1.323,-0.421,3085
1.324,-0.425,3085
1.325,-0.415,3085
1.326,-0.401,3085
1.327,-0.381,3085
1.328,-0.347,3079
1.329,-0.320,3079
1.330,-0.282,3079
1.331,-0.249,3079
1.332,-0.215,3079
1.333,-0.196,3079
1.334,-0.190,3079
1.335,-0.194,3079
1.336,-0.210,3079
1.337,-0.226,3079
1.338,-0.254,3084
1.339,-0.285,3084
1.340,-0.344,3084
1.341,-0.361,3084
1.342,-0.379,3084
1.343,-0.391,3084
1.344,-0.401,3084
1.345,-0.389,3084
1.346,-0.370,3084
1.347,-0.346,3090
1.348,-0.314,3090
1.349,-0.282,3090
1.350,-0.253,3090
1.351,-0.224,3090
1.352,-0.206,3090
1.353,-0.196,3090
1.354,-0.194,3090
1.355,-0.207,3090
1.356,-0.226,3090
1.357,-0.251,3106
1.358,-0.284,3106
1.359,-0.310,3106
1.360,-0.351,3106
1.361,-0.354,3106
1.362,-0.355,3106
1.363,-0.341,3106
1.364,-0.321,3106
1.365,-0.289,3106
1.366,-0.256,3100
1.367,-0.219,3100
1.368,-0.191,3100
1.369,-0.164,3100
1.370,-0.136,3100
1.371,-0.125,3100
1.372,-0.121,3100
1.373,-0.128,3100
1.374,-0.144,3100
1.375,-0.166,3100
1.376,-0.190,3107
1.377,-0.212,3107
1.378,-0.245,3107
1.379,-0.274,3107
1.380,-0.305,3107
1.381,-0.306,3107
1.382,-0.294,3107
1.383,-0.271,3107
1.384,-0.244,3107
1.385,-0.204,3113
1.386,-0.169,3113
1.387,-0.130,3113
1.388,-0.104,3113
1.389,-0.071,3113
1.390,-0.056,3113
1.391,-0.046,3113
1.392,-0.051,3113
1.393,-0.066,3113
1.394,-0.091,3113
1.395,-0.121,3123
1.396,-0.151,3123
1.397,-0.189,3123
1.398,-0.217,3123
1.399,-0.245,3123
1.400,-0.264,3123
1.401,-0.256,3123
1.402,-0.231,3123
1.403,-0.205,3123
1.404,-0.169,3121
1.405,-0.128,3121
1.406,-0.089,3121
1.407,-0.046,3121
1.408,-0.013,3121
1.409,0.019,3121
1.410,0.034,3121
1.411,0.031,3121
1.412,0.039,3121
1.413,-0.006,3121
1.414,-0.025,3113
1.415,-0.051,3113
1.416,-0.086,3113
1.417,-0.114,3113
1.418,-0.142,3113
1.419,-0.163,3113
1.420,-0.169,3113
1.421,-0.147,3113
1.422,-0.125,3113
1.423,-0.096,3124
1.424,-0.064,3124
1.425,-0.035,3124
1.426,-0.021,3124
1.427,0.006,3124
1.428,0.014,3124
1.429,0.021,3124
1.430,0.013,3124
1.431,-0.010,3124
1.432,-0.034,3124
1.433,-0.061,3133
1.434,-0.091,3133
1.435,-0.122,3133
1.436,-0.149,3133
1.437,-0.174,3133
1.438,-0.189,3133
1.439,-0.194,3133
1.440,-0.166,3133
1.441,-0.136,3133
1.442,-0.096,3126
1.443,-0.059,3126
1.444,-0.024,3126
1.445,0.019,3126
1.446,0.044,3126
1.447,0.064,3126
1.448,0.070,3126
1.449,0.068,3126
1.450,0.051,3126
1.451,0.026,3126
1.452,-0.011,3120
1.453,-0.046,3120
1.454,-0.086,3120
1.455,-0.116,3120
1.456,-0.139,3120
1.457,-0.161,3120
1.458,-0.141,3120
1.459,-0.109,3120
1.460,-0.049,3118
1.461,-0.005,3118
1.462,0.019,3118
1.463,0.021,3118
1.464,0.024,3118
1.465,0.013,3118
1.466,-0.014,3118
1.467,-0.044,3118
1.468,-0.080,3109
1.469,-0.111,3109
1.470,-0.149,3109
1.471,-0.174,3109
1.472,-0.216,3109
1.473,-0.206,3109
1.474,-0.212,3109
1.475,-0.212,3109
1.476,-0.204,3109
1.477,-0.190,3109
1.478,-0.170,3122
1.479,-0.145,3122
1.480,-0.089,3122
1.481,-0.070,3122
1.482,-0.056,3122
1.483,-0.056,3122
1.484,-0.070,3122
1.485,-0.094,3122
1.486,-0.129,3122
1.487,-0.169,3109
1.488,-0.212,3109
1.489,-0.256,3109
1.490,-0.299,3109
1.491,-0.334,3109
1.492,-0.361,3109
1.493,-0.374,3109
1.494,-0.372,3109
1.495,-0.362,3109
1.496,-0.341,3109
1.497,-0.306,3106
1.498,-0.274,3106
1.499,-0.246,3106
1.500,-0.196,3106
1.501,-0.191,3106
1.502,-0.189,3106
1.503,-0.204,3106
1.504,-0.219,3106
1.505,-0.244,3106
1.506,-0.271,3106
1.507,-0.306,3095
1.508,-0.344,3095
1.509,-0.370,3095
1.510,-0.401,3095
1.511,-0.415,3095
1.512,-0.426,3095
1.513,-0.425,3095
1.514,-0.415,3095
1.515,-0.386,3095
1.516,-0.365,3095
1.517,-0.336,3107
1.518,-0.306,3107
1.519,-0.282,3107
1.520,-0.251,3107
1.521,-0.249,3107
1.522,-0.251,3107
1.523,-0.266,3107
1.524,-0.290,3107
1.525,-0.323,3107
1.526,-0.354,3100
1.527,-0.385,3100
1.528,-0.416,3100
1.529,-0.443,3100
1.530,-0.451,3100
1.531,-0.454,3100
1.532,-0.443,3100
1.533,-0.421,3100
1.534,-0.389,3100
1.535,-0.361,3100
1.536,-0.324,3090
1.537,-0.289,3090
1.538,-0.256,3090
1.539,-0.233,3090
1.540,-0.210,3090
1.541,-0.212,3090
1.542,-0.229,3090
1.543,-0.251,3090
1.544,-0.276,3090
1.545,-0.307,3085
1.546,-0.335,3085
1.547,-0.356,3085
1.548,-0.371,3085
1.549,-0.385,3085
1.550,-0.386,3085
1.551,-0.379,3085
1.552,-0.362,3085
1.553,-0.334,3085
1.554,-0.296,3085
1.555,-0.266,3100
1.556,-0.241,3100
1.557,-0.215,3100
1.558,-0.196,3100
1.559,-0.189,3100
1.560,-0.209,3100
1.561,-0.226,3100
1.562,-0.254,3100
1.563,-0.290,3100
1.564,-0.329,3080
1.565,-0.364,3080
1.566,-0.401,3080
1.567,-0.424,3080
1.568,-0.434,3080
1.569,-0.432,3080
1.570,-0.425,3080
1.571,-0.406,3080
1.572,-0.375,3080
1.573,-0.346,3080
1.574,-0.309,3100
1.575,-0.271,3100
1.576,-0.245,3100
1.577,-0.216,3100
1.578,-0.204,3100
1.579,-0.195,3100
1.580,-0.217,3100
1.581,-0.242,3100
1.582,-0.274,3100
1.583,-0.309,3092
1.584,-0.350,3092
1.585,-0.381,3092
1.586,-0.406,3092
1.587,-0.416,3092
1.588,-0.425,3092
1.589,-0.414,3092
1.590,-0.391,3092
1.591,-0.366,3092
1.592,-0.329,3092
1.593,-0.289,3109
1.594,-0.254,3109
1.595,-0.221,3109
1.596,-0.196,3109
1.597,-0.182,3109
1.598,-0.174,3109
1.599,-0.176,3109
1.600,-0.201,3109
1.601,-0.221,3109
1.602,-0.253,3100
1.603,-0.276,3100
1.604,-0.305,3100
1.605,-0.326,3100
1.606,-0.344,3100
1.607,-0.351,3100
1.608,-0.356,3100
1.609,-0.347,3100
1.610,-0.331,3100
1.611,-0.304,3100
1.612,-0.273,3109
1.613,-0.244,3109
1.614,-0.210,3109
1.615,-0.186,3109
1.616,-0.170,3109
1.617,-0.161,3109
1.618,-0.165,3109
1.619,-0.174,3109
1.620,-0.217,3109
1.621,-0.244,3118
1.622,-0.271,3118
1.623,-0.302,3118
1.624,-0.321,3118
1.625,-0.333,3118
1.626,-0.334,3118
1.627,-0.330,3118
1.628,-0.309,3118
1.629,-0.284,3118
1.630,-0.255,3118
1.631,-0.221,3085
1.632,-0.189,3085
1.633,-0.161,3085
1.634,-0.136,3085
1.635,-0.126,3085
1.636,-0.126,3085
1.637,-0.128,3085
1.638,-0.144,3085
1.639,-0.161,3085
1.640,-0.214,3109
1.641,-0.269,3109
1.642,-0.294,3109
1.643,-0.310,3109
1.644,-0.321,3109
1.645,-0.311,3109
1.646,-0.301,3109
1.647,-0.284,3109
1.648,-0.256,3109
1.649,-0.226,3102
1.650,-0.193,3102
1.651,-0.171,3102
1.652,-0.150,3102
1.653,-0.135,3102
1.654,-0.130,3102
1.655,-0.131,3102
1.656,-0.145,3102
1.657,-0.169,3102
1.658,-0.201,3102
1.659,-0.241,3116
1.660,-0.321,3116
1.661,-0.331,3116
1.662,-0.346,3116
1.663,-0.351,3116
1.664,-0.345,3116
1.665,-0.331,3116
1.666,-0.302,3116
1.667,-0.273,3116
1.668,-0.234,3124
1.669,-0.201,3124
1.670,-0.170,3124
1.671,-0.145,3124
1.672,-0.134,3124
1.673,-0.131,3124
1.674,-0.144,3124
1.675,-0.169,3124
1.676,-0.191,3124
1.677,-0.224,3124
1.678,-0.254,3119
1.679,-0.286,3119
1.680,-0.341,3119
1.681,-0.349,3119
1.682,-0.357,3119
1.683,-0.356,3119
1.684,-0.346,3119
1.685,-0.325,3119
1.686,-0.291,3119
1.687,-0.255,3110
1.688,-0.215,3110
1.689,-0.182,3110
1.690,-0.149,3110
1.691,-0.129,3110
1.692,-0.124,3110
1.693,-0.130,3110
1.694,-0.146,3110
1.695,-0.174,3110
1.696,-0.205,3110
1.697,-0.245,3121
1.698,-0.276,3121
1.699,-0.307,3121
1.700,-0.351,3121
1.701,-0.354,3121
1.702,-0.354,3121
1.703,-0.336,3121
1.704,-0.306,3121
1.705,-0.284,3121
1.706,-0.246,3131
1.707,-0.168,3131
1.708,-0.138,3131
1.709,-0.122,3131
1.710,-0.111,3131
1.711,-0.121,3131
1.712,-0.134,3131
1.713,-0.164,3131
1.714,-0.196,3131
1.715,-0.242,3120
1.716,-0.281,3120
1.717,-0.314,3120
1.718,-0.344,3120
1.719,-0.355,3120
1.720,-0.347,3120
1.721,-0.333,3120
1.722,-0.304,3120
1.723,-0.268,3120
1.724,-0.230,3054
1.725,-0.195,3054
1.726,-0.168,3054
1.727,-0.141,3054
1.728,-0.126,3054
1.729,-0.124,3054
1.730,-0.131,3054
1.731,-0.151,3054
1.732,-0.186,3054
1.733,-0.216,3054
1.734,-0.256,3119
1.735,-0.295,3119
1.736,-0.331,3119
1.737,-0.350,3119
1.738,-0.356,3119
1.739,-0.356,3119
1.740,-0.328,3119
1.741,-0.305,3119
1.742,-0.274,3119
1.743,-0.247,3113
1.744,-0.211,3113
1.745,-0.184,3113
1.746,-0.161,3113
1.747,-0.145,3113
1.748,-0.136,3113
1.749,-0.146,3113
1.750,-0.171,3113
1.751,-0.196,3113
1.752,-0.230,3113
1.753,-0.264,3107
1.754,-0.294,3107
1.755,-0.324,3107
1.756,-0.341,3107
1.757,-0.349,3107
1.758,-0.344,3107
1.759,-0.331,3107
1.760,-0.281,3107
1.761,-0.251,3107
1.762,-0.216,3107
1.763,-0.182,3091
1.764,-0.149,3091
1.765,-0.129,3091
1.766,-0.116,3091
1.767,-0.115,3091
1.768,-0.129,3091
1.769,-0.151,3091
1.770,-0.184,3091
1.771,-0.211,3091
1.772,-0.250,3091
1.773,-0.284,3099
1.774,-0.324,3099
1.775,-0.350,3099
1.776,-0.369,3099
1.777,-0.375,3099
1.778,-0.369,3099
1.779,-0.351,3099
1.780,-0.284,3099
1.781,-0.207,3111
1.782,-0.149,3111
1.783,-0.141,3111
1.784,-0.133,3111
1.785,-0.136,3111
1.786,-0.151,3111
1.787,-0.182,3111
1.788,-0.206,3111
1.789,-0.241,3111
1.790,-0.273,3104
1.791,-0.301,3104
1.792,-0.326,3104
1.793,-0.346,3104
1.794,-0.351,3104
1.795,-0.346,3104
1.796,-0.334,3104
1.797,-0.309,3104
1.798,-0.280,3104
1.799,-0.245,3104
1.800,-0.175,3094
1.801,-0.145,3094
1.802,-0.138,3094
1.803,-0.144,3094
1.804,-0.160,3094
1.805,-0.174,3094
1.806,-0.203,3094
1.807,-0.226,3094
1.808,-0.261,3093
1.809,-0.289,3093
1.810,-0.309,3093
1.811,-0.331,3093
1.812,-0.294,3093
1.813,-0.330,3093
1.814,-0.309,3093
1.815,-0.286,3093
1.816,-0.255,3093
1.817,-0.219,3093
1.818,-0.191,3103
1.819,-0.165,3103
1.820,-0.128,3103
1.821,-0.130,3103
1.822,-0.138,3103
1.823,-0.154,3103
1.824,-0.186,3103
1.825,-0.219,3103
1.826,-0.260,3103
1.827,-0.291,3113
1.828,-0.326,3113
1.829,-0.350,3113
1.830,-0.356,3113
1.831,-0.354,3113
1.832,-0.341,3113
1.833,-0.321,3113
1.834,-0.286,3113
1.835,-0.254,3113
1.836,-0.214,3113
1.837,-0.181,3098
1.838,-0.144,3098
1.839,-0.114,3098
1.840,-0.095,3098
1.841,-0.106,3098
1.842,-0.124,3098
1.843,-0.150,3098
1.844,-0.185,3098
1.845,-0.221,3098
1.846,-0.255,3102
1.847,-0.290,3102
1.848,-0.321,3102
1.849,-0.338,3102
1.850,-0.345,3102
1.851,-0.341,3102
1.852,-0.328,3102
1.853,-0.296,3102
1.854,-0.266,3102
1.855,-0.226,3102
1.856,-0.189,3102
1.857,-0.152,3102
1.858,-0.129,3102
1.859,-0.120,3102
1.860,-0.126,3102
1.861,-0.141,3102
1.862,-0.166,3102
1.863,-0.195,3102
1.864,-0.229,3102
1.865,-0.264,3071
1.866,-0.289,3071
1.867,-0.307,3071
1.868,-0.324,3071
1.869,-0.326,3071
1.870,-0.320,3071
1.871,-0.295,3071
1.872,-0.268,3071
1.873,-0.224,3071
1.874,-0.184,3071
1.875,-0.141,3119
1.876,-0.106,3119
1.877,-0.081,3119
1.878,-0.066,3119
1.879,-0.065,3119
1.880,-0.095,3119
1.881,-0.124,3119
1.882,-0.152,3119
1.883,-0.188,3119
1.884,-0.217,3118
1.885,-0.246,3118
1.886,-0.263,3118
1.887,-0.268,3118
1.888,-0.266,3118
1.889,-0.250,3118
1.890,-0.226,3118
1.891,-0.201,3118
1.892,-0.175,3118
1.893,-0.144,3118
1.894,-0.115,3133
1.895,-0.089,3133
1.896,-0.064,3133
1.897,-0.048,3133
1.898,-0.044,3133
1.899,-0.046,3133
1.900,-0.096,3133
1.901,-0.114,3133
1.902,-0.146,3133
1.903,-0.170,3111
1.904,-0.209,3111
1.905,-0.217,3111
1.906,-0.224,3111
1.907,-0.211,3111
1.908,-0.189,3111
1.909,-0.164,3111
1.910,-0.129,3111
1.911,-0.091,3111
1.912,-0.061,3124
1.913,-0.031,3124
1.914,-0.014,3124
1.915,-0.009,3124
1.916,-0.011,3124
1.917,-0.026,3124
1.918,-0.049,3124
1.919,-0.084,3124
1.920,-0.166,3124
1.921,-0.196,3125
1.922,-0.229,3125
1.923,-0.255,3125
1.924,-0.269,3125
1.925,-0.271,3125
1.926,-0.270,3125
1.927,-0.256,3125
1.928,-0.240,3125
1.929,-0.211,3125
1.930,-0.186,3125
1.931,-0.161,3101
1.932,-0.136,3101
1.933,-0.122,3101
1.934,-0.114,3101
1.935,-0.111,3101
1.936,-0.116,3101
1.937,-0.131,3101
1.938,-0.164,3101
1.939,-0.195,3101
1.940,-0.264,3124
1.941,-0.314,3124
1.942,-0.328,3124
1.943,-0.330,3124
1.944,-0.324,3124
1.945,-0.302,3124
1.946,-0.280,3124
1.947,-0.251,3124
1.948,-0.216,3124
1.949,-0.191,3112
1.950,-0.170,3112
1.951,-0.146,3112
1.952,-0.136,3112
1.953,-0.130,3112
1.954,-0.135,3112
1.955,-0.151,3112
1.956,-0.182,3112
1.957,-0.211,3112
1.958,-0.246,3112
1.959,-0.281,3109
1.960,-0.343,3109
1.961,-0.354,3109
1.962,-0.361,3109
1.963,-0.356,3109
1.964,-0.344,3109
1.965,-0.321,3109
1.966,-0.287,3109
1.967,-0.204,3109
1.968,-0.211,3103
1.969,-0.184,3103
1.970,-0.161,3103
1.971,-0.144,3103
1.972,-0.142,3103
1.973,-0.149,3103
1.974,-0.166,3103
1.975,-0.186,3103
1.976,-0.215,3103
1.977,-0.246,3103
1.978,-0.271,3097
1.979,-0.301,3097
1.980,-0.333,3097
1.981,-0.331,3097
1.982,-0.325,3097
1.983,-0.304,3097
1.984,-0.270,3097
1.985,-0.234,3097
1.986,-0.203,3097
1.987,-0.166,3104
1.988,-0.136,3104
1.989,-0.114,3104
1.990,-0.104,3104
1.991,-0.096,3104
1.992,-0.105,3104
1.993,-0.121,3104
1.994,-0.146,3104
1.995,-0.181,3104
1.996,-0.215,3104
1.997,-0.256,3105
1.998,-0.289,3105
1.999,-0.307,3105
2.000,-0.333,3105
2.001,-0.326,3105
2.002,-0.304,3105
2.003,-0.275,3105
2.004,-0.242,3105
2.005,-0.205,3105
2.006,-0.174,3105
2.007,-0.146,3108
2.008,-0.135,3108
2.009,-0.135,3108
2.010,-0.147,3108
2.011,-0.174,3108
2.012,-0.209,3108
2.013,-0.250,3108
2.014,-0.294,3108
2.015,-0.341,3108
2.016,-0.385,3108
2.017,-0.430,3106
2.018,-0.464,3106
2.019,-0.490,3106
2.020,-0.485,3106
2.021,-0.458,3106
2.022,-0.424,3106
2.023,-0.374,3106
2.024,-0.314,3106
2.025,-0.263,3106
2.026,-0.201,3094
2.027,-0.135,3094
2.028,-0.081,3094
2.029,-0.026,3094
2.030,0.035,3094
2.031,0.094,3094
2.032,0.151,3094
2.033,0.214,3094
2.034,0.284,3094
2.035,0.359,3094
2.036,0.449,3101
2.037,0.552,3101
2.038,0.671,3101
2.039,0.796,3101
2.040,1.146,3101
2.041,1.310,3101
2.042,1.530,3101
2.043,1.770,3101
2.044,2.019,3101
2.045,2.254,3098
2.046,2.447,3098
2.047,2.559,3098
2.048,2.559,3098
2.049,2.559,3098
2.050,2.470,3098
2.051,2.309,3098
2.052,2.110,3098
2.053,1.889,3098
2.054,1.656,3098
2.055,1.435,3088
2.056,1.224,3088
2.057,1.025,3088
2.058,0.844,3088
2.059,0.674,3088
2.060,0.345,3088
2.061,0.287,3088
2.062,0.131,3088
2.063,0.034,3088
2.064,-0.048,3088
2.065,-0.121,3088
2.066,-0.194,3088
2.067,-0.266,3088
2.068,-0.341,3088
2.069,-0.412,3088
2.070,-0.481,3088
2.071,-0.541,3088
2.072,-0.589,3088
2.073,-0.630,3088
2.074,-0.671,3095
2.075,-0.689,3095
2.076,-0.693,3095
2.077,-0.689,3095
2.078,-0.669,3095
2.079,-0.634,3095
2.080,-0.546,3095
2.081,-0.504,3095
2.082,-0.451,3095
2.083,-0.407,3100
2.084,-0.366,3100
2.085,-0.334,3100
2.086,-0.310,3100
2.087,-0.296,3100
2.088,-0.306,3100
2.089,-0.326,3100
2.090,-0.349,3100
2.091,-0.384,3100
2.092,-0.415,3100
2.093,-0.445,3109
2.094,-0.466,3109
2.095,-0.485,3109
2.096,-0.486,3109
2.097,-0.482,3109
2.098,-0.453,3109
2.099,-0.436,3109
2.100,-0.362,3109
2.101,-0.331,3109
2.102,-0.294,3079
2.103,-0.268,3079
2.104,-0.250,3079
2.105,-0.242,3079
2.106,-0.246,3079
2.107,-0.264,3079
2.108,-0.282,3079
2.109,-0.311,3079
2.110,-0.350,3079
2.111,-0.384,3079
2.112,-0.417,3120
2.113,-0.446,3120
2.114,-0.458,3120
2.115,-0.455,3120
2.116,-0.448,3120
2.117,-0.421,3120
2.118,-0.385,3120
2.119,-0.344,3120
2.120,-0.253,3120
2.121,-0.226,3106
2.122,-0.205,3106
2.123,-0.194,3106
2.124,-0.154,3106
2.125,-0.163,3106
2.126,-0.224,3106
2.127,-0.255,3106
2.128,-0.289,3106
2.129,-0.325,3106
2.130,-0.356,3106
2.131,-0.381,3097
2.132,-0.421,3097
2.133,-0.424,3097
2.134,-0.414,3097
2.135,-0.393,3097
2.136,-0.370,3097
2.137,-0.344,3097
2.138,-0.306,3097
2.139,-0.269,3097
2.140,-0.204,3061
2.141,-0.176,3061
2.142,-0.181,3061
2.143,-0.196,3061
2.144,-0.226,3061
2.145,-0.264,3061
2.146,-0.301,3061
2.147,-0.334,3061
2.148,-0.366,3127
2.149,-0.386,3127
2.150,-0.401,3127
2.151,-0.403,3127
2.152,-0.386,3127
2.153,-0.369,3127
2.154,-0.339,3127
2.155,-0.295,3127
2.156,-0.261,3127
2.157,-0.215,3127
2.158,-0.184,3116
2.159,-0.154,3116
2.160,-0.139,3116
2.161,-0.151,3116
2.162,-0.174,3116
2.163,-0.198,3116
2.164,-0.231,3116
2.165,-0.270,3116
2.166,-0.305,3116
2.167,-0.334,3112
2.168,-0.356,3112
2.169,-0.364,3112
2.170,-0.364,3112
2.171,-0.347,3112
2.172,-0.325,3112
2.173,-0.290,3112
2.174,-0.261,3112
2.175,-0.224,3112
2.176,-0.189,3112
2.177,-0.150,3101
2.178,-0.129,3101
2.179,-0.114,3101
2.180,-0.124,3101
2.181,-0.141,3101
2.182,-0.171,3101
2.183,-0.205,3101
2.184,-0.234,3101
2.185,-0.266,3101
2.186,-0.284,3135
2.187,-0.296,3135
2.188,-0.301,3135
2.189,-0.296,3135
2.190,-0.287,3135
2.191,-0.265,3135
2.192,-0.244,3135
2.193,-0.207,3135
2.194,-0.176,3135
2.195,-0.144,3135
2.196,-0.114,3122
2.197,-0.095,3122
2.198,-0.086,3122
2.199,-0.086,3122
2.200,-0.126,3122
2.201,-0.151,3122
2.202,-0.184,3122
2.203,-0.214,3122
2.204,-0.246,3122
2.205,-0.269,3100
2.206,-0.286,3100
2.207,-0.286,3100
2.208,-0.281,3100
2.209,-0.263,3100
2.210,-0.234,3100
2.211,-0.207,3100
2.212,-0.171,3100
2.213,-0.134,3100
2.214,-0.099,3100
2.215,-0.069,3113
2.216,-0.049,3113
2.217,-0.034,3113
2.218,-0.024,3113
2.219,-0.029,3113
2.220,-0.074,3113
2.221,-0.104,3113
2.222,-0.141,3113
2.223,-0.174,3113
2.224,-0.206,3102
2.225,-0.229,3102
2.226,-0.235,3102
2.227,-0.241,3102
2.228,-0.226,3102
2.229,-0.203,3102
2.230,-0.170,3102
2.231,-0.129,3102
2.232,-0.089,3102
2.233,-0.048,3102
2.234,-0.016,3102
2.235,0.011,3102
2.236,0.026,3102
2.237,0.029,3102
2.238,0.024,3102
2.239,-0.003,3102
2.240,-0.056,3102
2.241,-0.086,3102
2.242,-0.121,3102
2.243,-0.147,3109
2.244,-0.169,3109
2.245,-0.182,3109
2.246,-0.181,3109
2.247,-0.169,3109
2.248,-0.142,3109
2.249,-0.109,3109
2.250,-0.071,3109
2.251,-0.033,3109
2.252,0.009,3109
2.253,0.044,3104
2.254,0.060,3104
2.255,0.074,3104
2.256,0.076,3104
2.257,0.069,3104
2.258,0.049,3104
2.259,0.028,3104
2.260,-0.046,3104
2.261,-0.071,3104
2.262,-0.096,3104
2.263,-0.114,3097
2.264,-0.126,3097
2.265,-0.125,3097
2.266,-0.110,3097
2.267,-0.094,3097
2.268,-0.066,3097
2.269,-0.036,3097
2.270,-0.011,3097
2.271,0.026,3097
2.272,0.051,3097
2.273,0.071,3090
2.274,0.079,3090
2.275,0.085,3090
2.276,0.071,3090
2.277,0.055,3090
2.278,0.030,3090
2.279,-0.005,3090
2.280,-0.124,3090
2.281,-0.106,3098
2.282,-0.142,3098
2.283,-0.149,3098
2.284,-0.142,3098
2.285,-0.129,3098
2.286,-0.107,3098
2.287,-0.081,3098
2.288,-0.049,3098
2.289,-0.024,3098
2.290,0.006,3098
2.291,0.024,3096
2.292,0.034,3096
2.293,0.036,3096
2.294,0.026,3096
2.295,0.009,3096
2.296,-0.029,3096
2.297,-0.064,3096
2.298,-0.101,3096
2.299,-0.131,3096
2.300,-0.186,3098
2.301,-0.206,3098
2.302,-0.204,3098
2.303,-0.191,3098
2.304,-0.176,3098
2.305,-0.151,3098
2.306,-0.126,3098
2.307,-0.101,3098
2.308,-0.085,3098
2.309,-0.085,3104
2.310,-0.066,3104
2.311,-0.081,3104
2.312,-0.106,3104
2.313,-0.136,3104
2.314,-0.176,3104
2.315,-0.219,3104
2.316,-0.266,3104
2.317,-0.301,3104
2.318,-0.333,3104
2.319,-0.356,3096
2.320,-0.372,3096
2.321,-0.343,3096
2.322,-0.314,3096
2.323,-0.247,3096
2.324,-0.216,3096
2.325,-0.189,3096
2.326,-0.166,3103
2.327,-0.152,3103
2.328,-0.160,3103
2.329,-0.170,3103
2.330,-0.191,3103
2.331,-0.228,3103
2.332,-0.266,3103
2.333,-0.306,3103
2.334,-0.346,3103
2.335,-0.375,3103
2.336,-0.406,3110
2.337,-0.421,3110
2.338,-0.421,3110
2.339,-0.411,3110
2.340,-0.362,3110
2.341,-0.335,3110
2.342,-0.309,3110
2.343,-0.284,3110
2.344,-0.260,3110
2.345,-0.244,3097
2.346,-0.230,3097
2.347,-0.231,3097
2.348,-0.245,3097
2.349,-0.261,3097
2.350,-0.281,3097
2.351,-0.309,3097
2.352,-0.341,3097
2.353,-0.371,3097
2.354,-0.389,3097
2.355,-0.410,3099
2.356,-0.416,3099
2.357,-0.414,3099
2.358,-0.403,3099
2.359,-0.376,3099
2.360,-0.306,3099
2.361,-0.274,3099
2.362,-0.244,3099
2.363,-0.209,3099
2.364,-0.186,3083
2.365,-0.171,3083
2.366,-0.172,3083
2.367,-0.184,3083
2.368,-0.205,3083
2.369,-0.229,3083
2.370,-0.264,3083
2.371,-0.296,3083
2.372,-0.335,3083
2.373,-0.366,3083
2.374,-0.391,3113
2.375,-0.404,3113
2.376,-0.403,3113
2.377,-0.384,3113
2.378,-0.355,3113
2.379,-0.324,3113
2.380,-0.247,3113
2.381,-0.223,3113
2.382,-0.191,3113
2.383,-0.170,3134
2.384,-0.189,3134
2.385,-0.198,3134
2.386,-0.217,3134
2.387,-0.249,3134
2.388,-0.284,3134
2.389,-0.323,3134
2.390,-0.356,3134
2.391,-0.390,3134
2.392,-0.417,3134
2.393,-0.430,3100
2.394,-0.440,3100
2.395,-0.429,3100
2.396,-0.414,3100
2.397,-0.388,3100
2.398,-0.356,3100
2.399,-0.324,3100
2.400,-0.246,3100
2.401,-0.216,3100
2.402,-0.194,3113
2.403,-0.186,3113
2.404,-0.191,3113
2.405,-0.198,3113
2.406,-0.217,3113
2.407,-0.245,3113
2.408,-0.271,3113
2.409,-0.305,3113
2.410,-0.336,3113
2.411,-0.369,3113
2.412,-0.386,3117
2.413,-0.401,3117
2.414,-0.401,3117
2.415,-0.384,3117
2.416,-0.361,3117
2.417,-0.323,3117
2.418,-0.280,3117
2.419,-0.231,3117
2.420,-0.151,3117
2.421,-0.126,3127
2.422,-0.106,3127
2.423,-0.115,3127
2.424,-0.134,3127
2.425,-0.161,3127
2.426,-0.195,3127
2.427,-0.229,3127
2.428,-0.270,3127
2.429,-0.306,3127
2.430,-0.343,3111
2.431,-0.364,3111
2.432,-0.374,3111
2.433,-0.411,3111
2.434,-0.364,3111
2.435,-0.346,3111
2.436,-0.311,3111
2.437,-0.284,3111
2.438,-0.253,3111
2.439,-0.221,3111
2.440,-0.184,3114
2.441,-0.181,3114
2.442,-0.196,3114
2.443,-0.221,3114
2.444,-0.247,3114
2.445,-0.276,3114
2.446,-0.301,3114
2.447,-0.324,3114
2.448,-0.336,3119
2.449,-0.347,3119
2.450,-0.345,3119
2.451,-0.334,3119
2.452,-0.302,3119
2.453,-0.271,3119
2.454,-0.234,3119
2.455,-0.204,3119
2.456,-0.169,3119
2.457,-0.146,3119
2.458,-0.134,3082
2.459,-0.134,3082
2.460,-0.151,3082
2.461,-0.174,3082
2.462,-0.206,3082
2.463,-0.241,3082
2.464,-0.274,3082
2.465,-0.304,3082
2.466,-0.334,3082
2.467,-0.354,3105
2.468,-0.369,3105
2.469,-0.366,3105
2.470,-0.354,3105
2.471,-0.329,3105
2.472,-0.295,3105
2.473,-0.261,3105
2.474,-0.221,3105
2.475,-0.186,3105
2.476,-0.154,3105
2.477,-0.131,3105
2.478,-0.116,3105
2.479,-0.110,3105
2.480,-0.141,3105
2.481,-0.171,3105
2.482,-0.198,3105
2.483,-0.241,3105
2.484,-0.271,3105
2.485,-0.304,3105
2.486,-0.331,3112
2.487,-0.349,3112
2.488,-0.351,3112
2.489,-0.346,3112
2.490,-0.331,3112
2.491,-0.307,3112
2.492,-0.285,3112
2.493,-0.251,3112
2.494,-0.216,3112
2.495,-0.189,3112
2.496,-0.170,3112
2.497,-0.163,3112
2.498,-0.165,3112
2.499,-0.171,3112
2.500,-0.228,3112
2.501,-0.261,3112
2.502,-0.294,3112
2.503,-0.335,3112
2.504,-0.361,3112
2.505,-0.384,3112
2.506,-0.391,3078
2.507,-0.388,3078
2.508,-0.369,3078
2.509,-0.341,3078
2.510,-0.296,3078
2.511,-0.254,3078
2.512,-0.210,3078
2.513,-0.168,3078
2.514,-0.133,3078
2.515,-0.114,3078
2.516,-0.106,3122
2.517,-0.111,3122
2.518,-0.129,3122
2.519,-0.164,3122
2.520,-0.266,3122
2.521,-0.294,3122
2.522,-0.336,3122
2.523,-0.367,3122
2.524,-0.390,3122
2.525,-0.404,3116
2.526,-0.385,3116
2.527,-0.371,3116
2.528,-0.345,3116
2.529,-0.306,3116
2.530,-0.271,3116
2.531,-0.229,3116
2.532,-0.195,3116
2.533,-0.166,3116
2.534,-0.144,3116
2.535,-0.131,3094
2.536,-0.144,3094
2.537,-0.164,3094
2.538,-0.191,3094
2.539,-0.221,3094
2.540,-0.304,3094
2.541,-0.336,3094
2.542,-0.370,3094
2.543,-0.404,3094
2.544,-0.421,3117
2.545,-0.426,3117
2.546,-0.421,3117
2.547,-0.400,3117
2.548,-0.364,3117
2.549,-0.328,3117
2.550,-0.280,3117
2.551,-0.231,3117
2.552,-0.196,3117
2.553,-0.171,3117
2.554,-0.151,3095
2.555,-0.149,3095
2.556,-0.164,3095
2.557,-0.186,3095
2.558,-0.215,3095
2.559,-0.256,3095
2.560,-0.330,3095
2.561,-0.354,3095
2.562,-0.372,3095
2.563,-0.386,3092
2.564,-0.389,3092
2.565,-0.383,3092
2.566,-0.366,3092
2.567,-0.344,3092
2.568,-0.309,3092
2.569,-0.275,3092
2.570,-0.242,3092
2.571,-0.210,3092
2.572,-0.184,3092
2.573,-0.170,3097
2.574,-0.154,3097
2.575,-0.166,3097
2.576,-0.175,3097
2.577,-0.201,3097
2.578,-0.226,3097
2.579,-0.256,3097
2.580,-0.321,3097
2.581,-0.336,3097
2.582,-0.346,3096
2.583,-0.344,3096
2.584,-0.329,3096
2.585,-0.302,3096
2.586,-0.274,3096
2.587,-0.246,3096
2.588,-0.214,3096
2.589,-0.186,3096
2.590,-0.168,3096
2.591,-0.150,3096
2.592,-0.146,3100
2.593,-0.144,3100
2.594,-0.151,3100
2.595,-0.174,3100
2.596,-0.196,3100
2.597,-0.229,3100
2.598,-0.264,3100
2.599,-0.295,3100
2.600,-0.346,3100
2.601,-0.354,3117
2.602,-0.354,3117
2.603,-0.351,3117
2.604,-0.341,3117
2.605,-0.321,3117
2.606,-0.292,3117
2.607,-0.266,3117
2.608,-0.241,3117
2.609,-0.211,3117
2.610,-0.191,3117
2.611,-0.181,3078
2.612,-0.176,3078
2.613,-0.185,3078
2.614,-0.198,3078
2.615,-0.221,3078
2.616,-0.246,3078
2.617,-0.274,3078
2.618,-0.301,3078
2.619,-0.329,3078
2.620,-0.356,3111
2.621,-0.349,3111
2.622,-0.329,3111
2.623,-0.306,3111
2.624,-0.273,3111
2.625,-0.240,3111
2.626,-0.196,3111
2.627,-0.161,3111
2.628,-0.126,3111
2.629,-0.104,3099
2.630,-0.086,3099
2.631,-0.084,3099
2.632,-0.096,3099
2.633,-0.121,3099
2.634,-0.151,3099
2.635,-0.194,3099
2.636,-0.224,3099
2.637,-0.258,3099
2.638,-0.276,3099
2.639,-0.289,3110
2.640,-0.276,3110
2.641,-0.261,3110
2.642,-0.228,3110
2.643,-0.191,3110
2.644,-0.161,3110
2.645,-0.121,3110
2.646,-0.092,3110
2.647,-0.069,3110
2.648,-0.056,3123
2.649,-0.061,3123
2.650,-0.084,3123
2.651,-0.107,3123
2.652,-0.136,3123
2.653,-0.176,3123
2.654,-0.209,3123
2.655,-0.234,3123
2.656,-0.263,3123
2.657,-0.271,3123
2.658,-0.276,3124
2.659,-0.266,3124
2.660,-0.207,3124
2.661,-0.181,3124
2.662,-0.141,3124
2.663,-0.105,3124
2.664,-0.068,3124
2.665,-0.041,3124
2.666,-0.025,3124
2.667,-0.014,3117
2.668,-0.014,3117
2.669,-0.026,3117
2.670,-0.052,3117
2.671,-0.090,3117
2.672,-0.136,3117
2.673,-0.186,3117
2.674,-0.229,3117
2.675,-0.266,3117
2.676,-0.289,3117
2.677,-0.296,3120
2.678,-0.296,3120
2.679,-0.287,3120
2.680,-0.242,3120
2.681,-0.182,3120
2.682,-0.186,3120
2.683,-0.154,3120
2.684,-0.134,3120
2.685,-0.129,3120
2.686,-0.121,3114
2.687,-0.128,3114
2.688,-0.141,3114
2.689,-0.169,3114
2.690,-0.195,3114
2.691,-0.231,3114
2.692,-0.271,3114
2.693,-0.306,3114
2.694,-0.336,3114
2.695,-0.354,3114
2.696,-0.364,3122
2.697,-0.369,3122
2.698,-0.357,3122
2.699,-0.344,3122
2.700,-0.271,3122
2.701,-0.210,3122
2.702,-0.188,3122
2.703,-0.169,3122
2.704,-0.164,3116
2.705,-0.166,3116
2.706,-0.176,3116
2.707,-0.201,3116
2.708,-0.231,3116
2.709,-0.270,3116
2.710,-0.309,3116
2.711,-0.344,3116
2.712,-0.374,3116
2.713,-0.386,3116
2.714,-0.389,3125
2.715,-0.384,3125
2.716,-0.364,3125
2.717,-0.341,3125
2.718,-0.311,3125
2.719,-0.286,3125
2.720,-0.217,3125
2.721,-0.196,3125
2.722,-0.176,3125
2.723,-0.170,3115
2.724,-0.170,3115
2.725,-0.181,3115
2.726,-0.201,3115
2.727,-0.223,3115
2.728,-0.254,3115
2.729,-0.289,3115
2.730,-0.321,3115
2.731,-0.346,3115
2.732,-0.366,3115
2.733,-0.374,3106
2.734,-0.372,3106
2.735,-0.351,3106
2.736,-0.328,3106
2.737,-0.290,3106
2.738,-0.251,3106
2.739,-0.209,3106
2.740,-0.139,3106
2.741,-0.114,3091
2.742,-0.116,3091
2.743,-0.134,3091
2.744,-0.161,3091
2.745,-0.185,3091
2.746,-0.226,3091
2.747,-0.266,3091
2.748,-0.310,3091
2.749,-0.354,3091
2.750,-0.384,3091
2.751,-0.401,3101
2.752,-0.403,3101
2.753,-0.386,3101
2.754,-0.366,3101
2.755,-0.334,3101
2.756,-0.291,3101
2.757,-0.254,3101
2.758,-0.216,3101
2.759,-0.189,3101
2.760,-0.166,3112
2.761,-0.176,3112
2.762,-0.198,3112
2.763,-0.229,3112
2.764,-0.266,3112
2.765,-0.304,3112
2.766,-0.346,3112
2.767,-0.384,3112
2.768,-0.416,3112
2.769,-0.436,3112
2.770,-0.455,3110
2.771,-0.456,3110
2.772,-0.451,3110
2.773,-0.386,3110
2.774,-0.411,3110
2.775,-0.374,3110
2.776,-0.351,3110
2.777,-0.325,3110
2.778,-0.294,3110
2.779,-0.276,3110
2.780,-0.253,3092
2.781,-0.228,3092
2.782,-0.209,3092
2.783,-0.184,3092
2.784,-0.136,3092
2.785,-0.084,3092
2.786,-0.003,3092
2.787,0.101,3092
2.788,0.219,3106
2.789,0.357,3106
2.790,0.509,3106
2.791,0.670,3106
2.792,0.839,3106
2.793,1.025,3106
2.794,1.224,3106
2.795,1.449,3106
2.796,1.659,3106
2.797,1.885,3106
2.798,2.103,3101
2.799,2.294,3101
2.800,2.496,3101
2.801,2.490,3101
2.802,2.416,3101
2.803,2.289,3101
2.804,2.109,3101
2.805,1.945,3101
2.806,1.784,3101
2.807,1.623,3085
2.808,1.464,3085
2.809,1.314,3085
2.810,1.164,3085
2.811,1.016,3085
2.812,0.874,3085
2.813,0.733,3085
2.814,0.584,3085
2.815,0.434,3085
2.816,0.287,3085
2.817,0.140,3103
2.818,0.009,3103
2.819,-0.129,3103
2.820,-0.389,3103
2.821,-0.494,3103
2.822,-0.571,3103
2.823,-0.632,3103
2.824,-0.686,3103
2.825,-0.714,3103
2.826,-0.728,3101
2.827,-0.724,3101
2.828,-0.698,3101
2.829,-0.671,3101
2.830,-0.625,3101
2.831,-0.576,3101
2.832,-0.530,3101
2.833,-0.491,3101
2.834,-0.451,3101
2.835,-0.431,3099
2.836,-0.420,3099
2.837,-0.427,3099
2.838,-0.436,3099
2.839,-0.454,3099
2.840,-0.507,3099
2.841,-0.531,3099
2.842,-0.541,3099
2.843,-0.549,3099
2.844,-0.546,3098
2.845,-0.534,3098
2.846,-0.511,3098
2.847,-0.482,3098
2.848,-0.446,3098
2.849,-0.411,3098
2.850,-0.375,3098
2.851,-0.343,3098
2.852,-0.324,3098
2.853,-0.306,3098
2.854,-0.304,3114
2.855,-0.311,3114
2.856,-0.331,3114
2.857,-0.356,3114
2.858,-0.386,3114
2.859,-0.416,3114
2.860,-0.487,3114
2.861,-0.504,3114
2.862,-0.515,3114
2.863,-0.509,3097
2.864,-0.441,3097
2.865,-0.434,3097
2.866,-0.401,3097
2.867,-0.370,3097
2.868,-0.343,3097
2.869,-0.321,3097
2.870,-0.296,3097
2.871,-0.286,3097
2.872,-0.287,3114
2.873,-0.296,3114
2.874,-0.326,3114
2.875,-0.351,3114
2.876,-0.376,3114
2.877,-0.409,3114
2.878,-0.441,3114
2.879,-0.456,3114
2.880,-0.471,3114
2.881,-0.449,3124
2.882,-0.426,3124
2.883,-0.403,3124
2.884,-0.364,3124
2.885,-0.328,3124
2.886,-0.292,3124
2.887,-0.269,3124
2.888,-0.254,3124
2.889,-0.253,3124
2.890,-0.261,3104
2.891,-0.281,3104
2.892,-0.306,3104
2.893,-0.341,3104
2.894,-0.371,3104
2.895,-0.404,3104
2.896,-0.430,3104
2.897,-0.451,3104
2.898,-0.464,3104
2.899,-0.465,3104
2.900,-0.424,3116
2.901,-0.355,3116
2.902,-0.301,3116
2.903,-0.271,3116
2.904,-0.249,3116
2.905,-0.221,3116
2.906,-0.209,3116
2.907,-0.204,3129
2.908,-0.209,3129
2.909,-0.229,3129
2.910,-0.264,3129
2.911,-0.304,3129
2.912,-0.341,3129
2.913,-0.371,3129
2.914,-0.404,3129
2.915,-0.415,3129
2.916,-0.416,3129
2.917,-0.405,3118
2.918,-0.384,3118
2.919,-0.356,3118
2.920,-0.281,3118
2.921,-0.255,3118
2.922,-0.216,3118
2.923,-0.196,3118
2.924,-0.182,3118
2.925,-0.181,3118
2.926,-0.189,3120
2.927,-0.204,3120
2.928,-0.231,3120
2.929,-0.254,3120
2.930,-0.289,3120
2.931,-0.310,3120
2.932,-0.341,3120
2.933,-0.354,3120
2.934,-0.369,3120
2.935,-0.371,3120
2.936,-0.366,3122
2.937,-0.351,3122
2.938,-0.328,3122
2.939,-0.295,3122
2.940,-0.215,3122
2.941,-0.189,3122
2.942,-0.151,3122
2.943,-0.130,3122
2.944,-0.115,3122
2.945,-0.114,3134
2.946,-0.131,3134
2.947,-0.151,3134
2.948,-0.189,3134
2.949,-0.224,3134
2.950,-0.265,3134
2.951,-0.296,3134
2.952,-0.326,3134
2.953,-0.343,3134
2.954,-0.343,3134
2.955,-0.334,3118
2.956,-0.311,3118
2.957,-0.284,3118
2.958,-0.249,3118
2.959,-0.210,3118
2.960,-0.126,3118
2.961,-0.096,3118
2.962,-0.074,3118
2.963,-0.064,3118
2.964,-0.061,3111
2.965,-0.070,3111
2.966,-0.095,3111
2.967,-0.126,3111
2.968,-0.161,3111
2.969,-0.191,3111
2.970,-0.226,3111
2.971,-0.250,3111
2.972,-0.264,3111
2.973,-0.269,3111
2.974,-0.261,3060
2.975,-0.251,3060
2.976,-0.226,3060
2.977,-0.205,3060
2.978,-0.170,3060
2.979,-0.136,3060
2.980,-0.072,3060
2.981,-0.059,3060
2.982,-0.044,3060
2.983,-0.044,3112
2.984,-0.049,3112
2.985,-0.066,3112
2.986,-0.086,3112
2.987,-0.107,3112
2.988,-0.134,3112
2.989,-0.169,3112
2.990,-0.191,3112
2.991,-0.206,3112
2.992,-0.214,3112
2.993,-0.211,3110
2.994,-0.204,3110
2.995,-0.175,3110
2.996,-0.144,3110
2.997,-0.104,3110
2.998,-0.064,3110
2.999,-0.024,3110
3.000,0.035,3110
3.001,0.046,3110
3.002,0.044,3110
3.003,0.024,3102
3.004,-0.009,3102
3.005,-0.037,3102
3.006,-0.071,3102
3.007,-0.113,3102
3.008,-0.147,3102
3.009,-0.176,3102
3.010,-0.195,3102
3.011,-0.206,3102
3.012,-0.209,3102
3.013,-0.194,3105
3.014,-0.169,3105
3.015,-0.134,3105
3.016,-0.101,3105
3.017,-0.061,3105
3.018,-0.029,3105
3.019,0.009,3105
3.020,0.031,3105
3.021,0.030,3095
3.022,-0.011,3095
3.023,-0.043,3095
3.024,-0.074,3095
3.025,-0.115,3095
3.026,-0.141,3095
3.027,-0.169,3095
3.028,-0.184,3095
3.029,-0.186,3095
3.030,-0.182,3095
3.031,-0.169,3107
3.032,-0.146,3107
3.033,-0.124,3107
3.034,-0.087,3107
3.035,-0.051,3107
3.036,-0.026,3107
3.037,-0.006,3107
3.038,0.014,3107
3.039,0.024,3107
3.040,-0.016,3093
3.041,-0.074,3093
3.042,-0.110,3093
3.043,-0.150,3093
3.044,-0.189,3093
3.045,-0.216,3093
3.046,-0.231,3093
3.047,-0.246,3093
3.048,-0.289,3093
3.049,-0.229,3122
3.050,-0.206,3122
3.051,-0.182,3122
3.052,-0.154,3122
3.053,-0.128,3122
3.054,-0.101,3122
3.055,-0.074,3122
3.056,-0.061,3122
3.057,-0.056,3122
3.058,-0.071,3122
3.059,-0.096,3088
3.060,-0.184,3088
3.061,-0.221,3088
3.062,-0.273,3088
3.063,-0.310,3088
3.064,-0.347,3088
3.065,-0.371,3088
3.066,-0.385,3088
3.067,-0.386,3088
3.068,-0.381,3101
3.069,-0.361,3101
3.070,-0.331,3101
3.071,-0.297,3101
3.072,-0.268,3101
3.073,-0.230,3101
3.074,-0.209,3101
3.075,-0.191,3101
3.076,-0.189,3101
3.077,-0.191,3101
3.078,-0.209,3095
3.079,-0.234,3095
3.080,-0.306,3095
3.081,-0.344,3095
3.082,-0.374,3095
3.083,-0.406,3095
3.084,-0.424,3095
3.085,-0.426,3095
3.086,-0.425,3095
3.087,-0.414,3104
3.088,-0.389,3104
3.089,-0.364,3104
3.090,-0.333,3104
3.091,-0.296,3104
3.092,-0.271,3104
3.093,-0.249,3104
3.094,-0.241,3104
3.095,-0.226,3104
3.096,-0.233,3104
3.097,-0.251,3102
3.098,-0.275,3102
3.099,-0.301,3102
3.100,-0.372,3102
3.101,-0.404,3102
3.102,-0.427,3102
3.103,-0.449,3102
3.104,-0.455,3102
3.105,-0.453,3102
3.106,-0.436,3102
3.107,-0.411,3102
3.108,-0.372,3102
3.109,-0.333,3102
3.110,-0.286,3102
3.111,-0.245,3102
3.112,-0.211,3102
3.113,-0.196,3102
3.114,-0.195,3102
3.115,-0.205,3102
3.116,-0.226,3108
3.117,-0.255,3108
3.118,-0.286,3108
3.119,-0.324,3108
3.120,-0.403,3108
3.121,-0.424,3108
3.122,-0.443,3108
3.123,-0.454,3108
3.124,-0.458,3108
3.125,-0.449,3109
3.126,-0.430,3109
3.127,-0.405,3109
3.128,-0.370,3109
3.129,-0.334,3109
3.130,-0.294,3109
3.131,-0.268,3109
3.132,-0.234,3109
3.133,-0.228,3109
3.134,-0.226,3109
3.135,-0.244,3123
3.136,-0.266,3123
3.137,-0.289,3123
3.138,-0.321,3123
3.139,-0.349,3123
3.140,-0.410,3123
3.141,-0.425,3123
3.142,-0.411,3123
3.143,-0.430,3120
3.144,-0.391,3120
3.145,-0.370,3120
3.146,-0.331,3120
3.147,-0.296,3120
3.148,-0.269,3120
3.149,-0.246,3120
3.150,-0.229,3120
3.151,-0.221,3120
3.152,-0.216,3120
3.153,-0.229,3102
3.154,-0.251,3102
3.155,-0.276,3102
3.156,-0.306,3102
3.157,-0.334,3102
3.158,-0.352,3102
3.159,-0.366,3102
3.160,-0.370,3102
3.161,-0.365,3102
3.162,-0.345,3119
3.163,-0.329,3119
3.164,-0.301,3119
3.165,-0.276,3119
3.166,-0.250,3119
3.167,-0.224,3119
3.168,-0.201,3119
3.169,-0.184,3119
3.170,-0.174,3119
3.171,-0.181,3119
3.172,-0.196,3119
3.173,-0.226,3119
3.174,-0.309,3119
3.175,-0.296,3119
3.176,-0.336,3119
3.177,-0.369,3119
3.178,-0.404,3119
3.179,-0.411,3119
3.180,-0.404,3119
3.181,-0.384,3100
3.182,-0.356,3100
3.183,-0.331,3100
3.184,-0.297,3100
3.185,-0.266,3100
3.186,-0.226,3100
3.187,-0.203,3100
3.188,-0.176,3100
3.189,-0.164,3100
3.190,-0.164,3100
3.191,-0.171,3109
3.192,-0.194,3109
3.193,-0.223,3109
3.194,-0.255,3109
3.195,-0.289,3109
3.196,-0.321,3109
3.197,-0.344,3109
3.198,-0.356,3109
3.199,-0.370,3109
3.200,-0.350,3122
3.201,-0.309,3122
3.202,-0.275,3122
3.203,-0.247,3122
3.204,-0.219,3122
3.205,-0.195,3122
3.206,-0.176,3122
3.207,-0.170,3122
3.208,-0.166,3122
3.209,-0.171,3106
3.210,-0.186,3106
3.211,-0.204,3106
3.212,-0.228,3106
3.213,-0.261,3106
3.214,-0.294,3106
3.215,-0.324,3106
3.216,-0.341,3106
3.217,-0.349,3106
3.218,-0.345,3106
3.219,-0.329,3114
3.220,-0.263,3114
3.221,-0.214,3114
3.222,-0.174,3114
3.223,-0.141,3114
3.224,-0.126,3114
3.225,-0.121,3114
3.226,-0.116,3114
3.227,-0.135,3114
3.228,-0.163,3100
3.229,-0.193,3100
3.230,-0.231,3100
3.231,-0.275,3100
3.232,-0.310,3100
3.233,-0.347,3100
3.234,-0.371,3100
3.235,-0.389,3100
3.236,-0.401,3100
3.237,-0.401,3100
3.238,-0.386,3110
3.239,-0.365,3110
3.240,-0.296,3110
3.241,-0.270,3110
3.242,-0.229,3110
3.243,-0.196,3110
3.244,-0.176,3110
3.245,-0.166,3110
3.246,-0.164,3110
3.247,-0.166,3110
3.248,-0.182,3110
3.249,-0.204,3110
3.250,-0.231,3110
3.251,-0.266,3110
3.252,-0.302,3110
3.253,-0.331,3110
3.254,-0.351,3110
3.255,-0.364,3110
3.256,-0.364,3110
3.257,-0.354,3110
3.258,-0.341,3093
3.259,-0.311,3093
3.260,-0.244,3093
3.261,-0.214,3093
3.262,-0.186,3093
3.263,-0.168,3093
3.264,-0.163,3093
3.265,-0.161,3093
3.266,-0.181,3096
3.267,-0.205,3096
3.268,-0.234,3096
3.269,-0.269,3096
3.270,-0.304,3096
3.271,-0.331,3096
3.272,-0.351,3096
3.273,-0.366,3096
3.274,-0.366,3096
3.275,-0.356,3096
3.276,-0.346,3096
3.277,-0.323,3118
3.278,-0.286,3118
3.279,-0.250,3118
3.280,-0.172,3118
3.281,-0.135,3118
3.282,-0.138,3118
3.283,-0.136,3118
3.284,-0.141,3118
3.285,-0.163,3118
3.286,-0.190,3110
3.287,-0.229,3110
3.288,-0.269,3110
3.289,-0.310,3110
3.290,-0.346,3110
3.291,-0.372,3110
3.292,-0.389,3110
3.293,-0.403,3110
3.294,-0.391,3110
3.295,-0.376,3110
3.296,-0.347,3104
3.297,-0.311,3104
3.298,-0.269,3104
3.299,-0.231,3104
3.300,-0.174,3104
3.301,-0.166,3104
3.302,-0.160,3104
3.303,-0.165,3104
3.304,-0.174,3104
3.305,-0.196,3116
3.306,-0.224,3116
3.307,-0.260,3116
3.308,-0.290,3116
3.309,-0.311,3116
3.310,-0.335,3116
3.311,-0.349,3116
3.312,-0.354,3116
3.313,-0.351,3116
3.314,-0.336,3116
3.315,-0.321,3099
3.316,-0.290,3099
3.317,-0.263,3099
3.318,-0.229,3099
3.319,-0.203,3099
3.320,-0.166,3099
3.321,-0.161,3099
3.322,-0.164,3099
3.323,-0.174,3099
3.324,-0.191,3093
3.325,-0.214,3093
3.326,-0.249,3093
3.327,-0.271,3093
3.328,-0.296,3093
3.329,-0.324,3093
3.330,-0.344,3093
3.331,-0.354,3093
3.332,-0.351,3093
3.333,-0.345,3093
3.334,-0.314,3104
3.335,-0.249,3104
3.336,-0.216,3104
3.337,-0.184,3104
3.338,-0.164,3104
3.339,-0.141,3104
3.340,-0.134,3104
3.341,-0.171,3109
3.342,-0.245,3109
3.343,-0.269,3109
3.344,-0.302,3109
3.345,-0.333,3109
3.346,-0.354,3109
3.347,-0.366,3109
3.348,-0.366,3109
3.349,-0.354,3109
3.350,-0.340,3085
3.351,-0.311,3085
3.352,-0.284,3085
3.353,-0.249,3085
3.354,-0.216,3085
3.355,-0.195,3085
3.356,-0.182,3085
3.357,-0.171,3085
3.358,-0.175,3085
3.359,-0.186,3085
3.360,-0.240,3117
3.361,-0.289,3117
3.362,-0.320,3117
3.363,-0.343,3117
3.364,-0.356,3117
3.365,-0.364,3117
3.366,-0.357,3117
3.367,-0.340,3117
3.368,-0.311,3099
3.369,-0.284,3099
3.370,-0.254,3099
3.371,-0.216,3099
3.372,-0.189,3099
3.373,-0.164,3099
3.374,-0.144,3099
3.375,-0.135,3099
3.376,-0.141,3099
3.377,-0.150,3099
3.378,-0.174,3108
3.379,-0.196,3108
3.380,-0.274,3108
3.381,-0.294,3108
3.382,-0.324,3108
3.383,-0.334,3108
3.384,-0.331,3108
3.385,-0.323,3108
3.386,-0.289,3108
3.387,-0.251,3118
3.388,-0.206,3118
3.389,-0.164,3118
3.390,-0.121,3118
3.391,-0.083,3118
3.392,-0.051,3118
3.393,-0.031,3118
3.394,-0.026,3118
3.395,-0.031,3118
3.396,-0.052,3118
3.397,-0.089,3131
3.398,-0.129,3131
3.399,-0.169,3131
3.400,-0.249,3131
3.401,-0.271,3131
3.402,-0.290,3131
3.403,-0.304,3131
3.404,-0.294,3131
3.405,-0.284,3131
3.406,-0.261,3116
3.407,-0.231,3116
3.408,-0.194,3116
3.409,-0.171,3116
3.410,-0.125,3116
3.411,-0.100,3116
3.412,-0.074,3116
3.413,-0.059,3116
3.414,-0.054,3116
3.415,-0.066,3116
3.416,-0.074,3124
3.417,-0.096,3124
3.418,-0.121,3124
3.419,-0.145,3124
3.420,-0.196,3124
3.421,-0.201,3124
3.422,-0.205,3124
3.423,-0.199,3124
3.424,-0.188,3124
3.425,-0.171,3124
3.426,-0.144,3124
3.427,-0.121,3124
3.428,-0.091,3124
3.429,-0.068,3124
3.430,-0.050,3124
3.431,-0.044,3124
3.432,-0.037,3124
3.433,-0.049,3124
3.434,-0.064,3124
3.435,-0.092,3124
3.436,-0.130,3124
3.437,-0.165,3124
3.438,-0.211,3124
3.439,-0.234,3124
3.440,-0.294,3124
3.441,-0.304,3124
3.442,-0.302,3124
3.443,-0.287,3124
3.444,-0.271,3118
3.445,-0.256,3118
3.446,-0.226,3118
3.447,-0.196,3118
3.448,-0.174,3118
3.449,-0.149,3118
3.450,-0.136,3118
3.451,-0.136,3118
3.452,-0.196,3118
3.453,-0.175,3118
3.454,-0.201,3113
3.455,-0.234,3113
3.456,-0.271,3113
3.457,-0.306,3113
3.458,-0.341,3113
3.459,-0.361,3113
3.460,-0.375,3113
3.461,-0.366,3113
3.462,-0.345,3113
3.463,-0.321,3120
3.464,-0.281,3120
3.465,-0.234,3120
3.466,-0.209,3120
3.467,-0.186,3120
3.468,-0.164,3120
3.469,-0.144,3120
3.470,-0.136,3120
3.471,-0.138,3120
3.472,-0.151,3120
3.473,-0.175,3123
3.474,-0.206,3123
3.475,-0.241,3123
3.476,-0.271,3123
3.477,-0.304,3123
3.478,-0.331,3123
3.479,-0.351,3123
3.480,-0.369,3123
3.481,-0.355,3123
3.482,-0.366,3101
3.483,-0.306,3101
3.484,-0.275,3101
3.485,-0.245,3101
3.486,-0.206,3101
3.487,-0.176,3101
3.488,-0.154,3101
3.489,-0.147,3101
3.490,-0.150,3101
3.491,-0.170,3101
3.492,-0.190,3126
3.493,-0.216,3126
3.494,-0.250,3126
3.495,-0.284,3126
3.496,-0.309,3126
3.497,-0.334,3126
3.498,-0.344,3126
3.499,-0.343,3126
3.500,-0.304,3126
3.501,-0.281,3126
3.502,-0.249,3099
3.503,-0.207,3099
3.504,-0.180,3099
3.505,-0.152,3099
3.506,-0.126,3099
3.507,-0.116,3099
3.508,-0.116,3099
3.509,-0.125,3099
3.510,-0.144,3099
3.511,-0.171,3099
3.512,-0.198,3100
3.513,-0.231,3100
3.514,-0.266,3100
3.515,-0.296,3100
3.516,-0.331,3100
3.517,-0.350,3100
3.518,-0.356,3100
3.519,-0.349,3100
3.520,-0.296,3119
3.521,-0.234,3119
3.522,-0.203,3119
3.523,-0.168,3119
3.524,-0.141,3119
3.525,-0.129,3119
3.526,-0.126,3119
3.527,-0.136,3119
3.528,-0.161,3119
3.529,-0.191,3119
3.530,-0.226,3118
3.531,-0.276,3118
3.532,-0.324,3118
3.533,-0.366,3118
3.534,-0.405,3118
3.535,-0.432,3118
3.536,-0.450,3118
3.537,-0.456,3118
3.538,-0.448,3118
3.539,-0.426,3118
3.540,-0.328,3098
3.541,-0.205,3098
3.542,-0.130,3098
3.543,-0.054,3098
3.544,0.024,3098
3.545,0.098,3098
3.546,0.172,3098
3.547,0.250,3098
3.548,0.331,3104
3.549,0.414,3104
3.550,0.509,3104
3.551,0.604,3104
3.552,0.715,3104
3.553,0.839,3104
3.554,0.981,3104
3.555,1.136,3104
3.556,1.330,3104
3.557,1.551,3104
3.558,1.796,3096
3.559,2.056,3096
3.560,2.536,3096
3.561,2.559,3096
3.562,2.559,3096
3.563,2.559,3096
3.564,2.559,3096
3.565,2.466,3096
3.566,2.288,3096
3.567,2.079,3112
3.568,1.836,3112
3.569,1.594,3112
3.570,1.351,3112
3.571,1.115,3112
3.572,0.902,3112
3.573,0.694,3112
3.574,0.509,3112
3.575,0.339,3112
3.576,0.206,3112
3.577,0.089,3097
3.578,0.007,3097
3.579,-0.068,3097
3.580,-0.184,3097
3.581,-0.215,3097
3.582,-0.264,3097
3.583,-0.304,3097
3.584,-0.350,3097
3.585,-0.391,3097
3.586,-0.443,3101
3.587,-0.489,3101
3.588,-0.525,3101
3.589,-0.561,3101
3.590,-0.586,3101
3.591,-0.600,3101
3.592,-0.596,3101
3.593,-0.585,3101
3.594,-0.561,3101
3.595,-0.532,3101
3.596,-0.496,3095
3.597,-0.454,3095
3.598,-0.416,3095
3.599,-0.376,3095
3.600,-0.326,3095
3.601,-0.324,3095
3.602,-0.321,3095
3.603,-0.329,3095
3.604,-0.346,3095
3.605,-0.370,3112
3.606,-0.404,3112
3.607,-0.456,3112
3.608,-0.449,3112
3.609,-0.463,3112
3.610,-0.469,3112
3.611,-0.471,3112
3.612,-0.458,3112
3.613,-0.446,3112
3.614,-0.421,3112
3.615,-0.389,3115
3.616,-0.355,3115
3.617,-0.324,3115
3.618,-0.291,3115
3.619,-0.265,3115
3.620,-0.241,3115
3.621,-0.249,3115
3.622,-0.270,3115
3.623,-0.292,3115
3.624,-0.323,3118
3.625,-0.354,3118
3.626,-0.391,3118
3.627,-0.429,3118
3.628,-0.456,3118
3.629,-0.484,3118
3.630,-0.492,3118
3.631,-0.486,3118
3.632,-0.464,3118
3.633,-0.434,3118
3.634,-0.403,3063
3.635,-0.365,3063
3.636,-0.329,3063
3.637,-0.289,3063
3.638,-0.256,3063
3.639,-0.230,3063
3.640,-0.216,3063
3.641,-0.212,3063
3.642,-0.224,3063
3.643,-0.246,3117
3.644,-0.282,3117
3.645,-0.321,3117
3.646,-0.350,3117
3.647,-0.375,3117
3.648,-0.401,3117
3.649,-0.409,3117
3.650,-0.406,3117
3.651,-0.393,3117
3.652,-0.376,3117
3.653,-0.351,3129
3.654,-0.324,3129
3.655,-0.289,3129
3.656,-0.264,3129
3.657,-0.244,3129
3.658,-0.229,3129
3.659,-0.224,3129
3.660,-0.245,3129
3.661,-0.266,3129
3.662,-0.287,3143
3.663,-0.311,3143
3.664,-0.341,3143
3.665,-0.364,3143
3.666,-0.384,3143
3.667,-0.390,3143
3.668,-0.391,3143
3.669,-0.384,3143
3.670,-0.367,3143
3.671,-0.344,3143
3.672,-0.314,3129
3.673,-0.285,3129
3.674,-0.256,3129
3.675,-0.228,3129
3.676,-0.204,3129
3.677,-0.190,3129
3.678,-0.184,3129
3.679,-0.186,3129
3.680,-0.224,3129
3.681,-0.254,3111
3.682,-0.286,3111
3.683,-0.321,3111
3.684,-0.350,3111
3.685,-0.370,3111
3.686,-0.386,3111
3.687,-0.386,3111
3.688,-0.384,3111
3.689,-0.364,3111
3.690,-0.335,3111
3.691,-0.307,3113
3.692,-0.274,3113
3.693,-0.242,3113
3.694,-0.206,3113
3.695,-0.182,3113
3.696,-0.165,3113
3.697,-0.151,3113
3.698,-0.161,3113
3.699,-0.176,3113
3.700,-0.231,3117
3.701,-0.294,3117
3.702,-0.326,3117
3.703,-0.347,3117
3.704,-0.355,3117
3.705,-0.351,3117
3.706,-0.335,3117
3.707,-0.311,3117
3.708,-0.281,3117
3.709,-0.244,3095
3.710,-0.203,3095
3.711,-0.166,3095
3.712,-0.129,3095
3.713,-0.100,3095
3.714,-0.085,3095
3.715,-0.084,3095
3.716,-0.092,3095
3.717,-0.111,3095
3.718,-0.146,3095
3.719,-0.181,3128
3.720,-0.261,3128
3.721,-0.286,3128
3.722,-0.306,3128
3.723,-0.326,3128
3.724,-0.328,3128
3.725,-0.312,3128
3.726,-0.295,3128
3.727,-0.265,3128
3.728,-0.224,3111
3.729,-0.181,3111
3.730,-0.134,3111
3.731,-0.094,3111
3.732,-0.090,3111
3.733,-0.030,3111
3.734,-0.021,3111
3.735,-0.024,3111
3.736,-0.039,3111
3.737,-0.061,3111
3.738,-0.089,3104
3.739,-0.121,3104
3.740,-0.190,3104
3.741,-0.209,3104
3.742,-0.221,3104
3.743,-0.226,3104
3.744,-0.224,3104
3.745,-0.205,3104
3.746,-0.185,3104
3.747,-0.152,3101
3.748,-0.125,3101
3.749,-0.094,3101
3.750,-0.066,3101
3.751,-0.046,3101
3.752,-0.031,3101
3.753,-0.028,3101
3.754,-0.031,3101
3.755,-0.046,3101
3.756,-0.068,3101
3.757,-0.094,3101
3.758,-0.121,3109
3.759,-0.149,3109
3.760,-0.186,3109
3.761,-0.190,3109
3.762,-0.172,3109
3.763,-0.169,3109
3.764,-0.142,3109
3.765,-0.106,3109
3.766,-0.071,3109
3.767,-0.036,3084
3.768,-0.006,3084
3.769,0.031,3084
3.770,0.052,3084
3.771,0.064,3084
3.772,0.066,3084
3.773,0.052,3084
3.774,0.031,3084
3.775,0.009,3084
3.776,-0.030,3084
3.777,-0.066,3116
3.778,-0.104,3116
3.779,-0.136,3116
3.780,-0.181,3116
3.781,-0.189,3116
3.782,-0.185,3116
3.783,-0.171,3116
3.784,-0.142,3116
3.785,-0.116,3116
3.786,-0.086,3091
3.787,-0.051,3091
3.788,-0.026,3091
3.789,-0.003,3091
3.790,0.019,3091
3.791,0.028,3091
3.792,0.029,3091
3.793,0.019,3091
3.794,-0.004,3091
3.795,-0.074,3091
3.796,-0.055,3087
3.797,-0.084,3087
3.798,-0.111,3087
3.799,-0.131,3087
3.800,-0.151,3087
3.801,-0.151,3087
3.802,-0.138,3087
3.803,-0.116,3087
3.804,-0.092,3087
3.805,-0.062,3099
3.806,-0.031,3099
3.807,-0.009,3099
3.808,0.019,3099
3.809,0.025,3099
3.810,0.016,3099
3.811,-0.004,3099
3.812,-0.029,3099
3.813,-0.056,3099
3.814,-0.092,3099
3.815,-0.128,3097
3.816,-0.166,3097
3.817,-0.201,3097
3.818,-0.226,3097
3.819,-0.245,3097
3.820,-0.245,3097
3.821,-0.230,3097
3.822,-0.205,3097
3.823,-0.175,3097
3.824,-0.138,3091
3.825,-0.109,3091
3.826,-0.034,3091
3.827,-0.064,3091
3.828,-0.054,3091
3.829,-0.054,3091
3.830,-0.065,3091
3.831,-0.087,3091
3.832,-0.121,3091
3.833,-0.166,3091
3.834,-0.214,3086
3.835,-0.265,3086
3.836,-0.309,3086
3.837,-0.349,3086
3.838,-0.381,3086
3.839,-0.400,3086
3.840,-0.404,3086
3.841,-0.385,3086
3.842,-0.361,3086
3.843,-0.331,3116
3.844,-0.296,3116
3.845,-0.266,3116
3.846,-0.246,3116
3.847,-0.225,3116
3.848,-0.216,3116
3.849,-0.221,3116
3.850,-0.231,3116
3.851,-0.256,3116
3.852,-0.284,3116
3.853,-0.311,3126
3.854,-0.347,3126
3.855,-0.378,3126
3.856,-0.403,3126
3.857,-0.414,3126
3.858,-0.410,3126
3.859,-0.376,3126
3.860,-0.326,3126
3.861,-0.296,3075
3.862,-0.265,3075
3.863,-0.231,3075
3.864,-0.211,3075
3.865,-0.196,3075
3.866,-0.194,3075
3.867,-0.196,3075
3.868,-0.217,3075
3.869,-0.246,3075
3.870,-0.282,3075
3.871,-0.323,3092
3.872,-0.356,3092
3.873,-0.391,3092
3.874,-0.421,3092
3.875,-0.436,3092
3.876,-0.443,3092
3.877,-0.434,3092
3.878,-0.416,3092
3.879,-0.384,3092
3.880,-0.296,3103
3.881,-0.229,3103
3.882,-0.206,3103
3.883,-0.191,3103
3.884,-0.188,3103
3.885,-0.191,3103
3.886,-0.211,3103
3.887,-0.234,3103
3.888,-0.268,3103
3.889,-0.296,3104
3.890,-0.334,3104
3.891,-0.364,3104
3.892,-0.384,3104
3.893,-0.394,3104
3.894,-0.394,3104
3.895,-0.385,3104
3.896,-0.364,3104
3.897,-0.343,3104
3.898,-0.311,3104
3.899,-0.284,3106
3.900,-0.226,3106
3.901,-0.210,3106
3.902,-0.195,3106
3.903,-0.189,3106
3.904,-0.189,3106
3.905,-0.199,3106
3.906,-0.214,3106
3.907,-0.244,3106
3.908,-0.271,3133
3.909,-0.296,3133
3.910,-0.326,3133
3.911,-0.344,3133
3.912,-0.352,3133
3.913,-0.361,3133
3.914,-0.355,3133
3.915,-0.346,3133
3.916,-0.324,3133
3.917,-0.296,3133
3.918,-0.274,3119
3.919,-0.249,3119
3.920,-0.209,3119
3.921,-0.207,3119
3.922,-0.196,3119
3.923,-0.211,3119
3.924,-0.215,3119
3.925,-0.233,3119
3.926,-0.261,3119
3.927,-0.281,3107
3.928,-0.309,3107
3.929,-0.331,3107
3.930,-0.349,3107
3.931,-0.362,3107
3.932,-0.366,3107
3.933,-0.361,3107
3.934,-0.341,3107
3.935,-0.311,3107
3.936,-0.289,3107
3.937,-0.249,3122
3.938,-0.224,3122
3.939,-0.194,3122
3.940,-0.154,3122
3.941,-0.146,3122
3.942,-0.146,3122
3.943,-0.161,3122
3.944,-0.180,3122
3.945,-0.204,3122
3.946,-0.231,3119
3.947,-0.264,3119
3.948,-0.286,3119
3.949,-0.266,3119
3.950,-0.309,3119
3.951,-0.309,3119
3.952,-0.296,3119
3.953,-0.276,3119
3.954,-0.250,3119
3.955,-0.224,3119
3.956,-0.196,3115
3.957,-0.174,3115
3.958,-0.154,3115
3.959,-0.144,3115
3.960,-0.138,3115
3.961,-0.144,3115
3.962,-0.161,3115
3.963,-0.184,3115
3.964,-0.206,3115
3.965,-0.241,3113
3.966,-0.274,3113
3.967,-0.301,3113
3.968,-0.331,3113
3.969,-0.341,3113
3.970,-0.343,3113
3.971,-0.334,3113
3.972,-0.309,3113
3.973,-0.285,3113
3.974,-0.254,3113
3.975,-0.216,3115
3.976,-0.181,3115
3.977,-0.149,3115
3.978,-0.122,3115
3.979,-0.101,3115
3.980,-0.086,3115
3.981,-0.096,3115
3.982,-0.121,3115
3.983,-0.146,3115
3.984,-0.186,3094
3.985,-0.228,3094
3.986,-0.269,3094
3.987,-0.302,3094
3.988,-0.329,3094
3.989,-0.341,3094
3.990,-0.341,3094
3.991,-0.329,3094
3.992,-0.301,3094
3.993,-0.269,3094
3.994,-0.229,3108
3.995,-0.191,3108
3.996,-0.151,3108
3.997,-0.126,3108
3.998,-0.105,3108
3.999,-0.096,3108
4.000,-0.124,3108
4.001,-0.146,3108
4.002,-0.182,3108
4.003,-0.216,3108
4.004,-0.256,3102
4.005,-0.289,3102
4.006,-0.314,3102
4.007,-0.331,3102
4.008,-0.334,3102
4.009,-0.328,3102
4.010,-0.297,3102
4.011,-0.270,3102
4.012,-0.230,3102
4.013,-0.196,3111
4.014,-0.152,3111
4.015,-0.129,3111
4.016,-0.104,3111
4.017,-0.087,3111
4.018,-0.083,3111
4.019,-0.094,3111
4.020,-0.161,3111
4.021,-0.194,3111
4.022,-0.234,3111
4.023,-0.274,3122
4.024,-0.309,3122
4.025,-0.331,3122
4.026,-0.344,3122
4.027,-0.349,3122
4.028,-0.341,3122
4.029,-0.324,3122
4.030,-0.295,3122
4.031,-0.264,3122
4.032,-0.224,3122
4.033,-0.188,3114
4.034,-0.146,3114
4.035,-0.121,3114
4.036,-0.101,3114
4.037,-0.091,3114
4.038,-0.095,3114
4.039,-0.114,3114
4.040,-0.189,3114
4.041,-0.225,3114
4.042,-0.271,3095
4.043,-0.311,3095
4.044,-0.347,3095
4.045,-0.366,3095
4.046,-0.371,3095
4.047,-0.367,3095
4.048,-0.350,3095
4.049,-0.325,3095
4.050,-0.286,3095
4.051,-0.246,3095
4.052,-0.206,3056
4.053,-0.175,3056
4.054,-0.146,3056
4.055,-0.129,3056
4.056,-0.126,3056
4.057,-0.129,3056
4.058,-0.141,3056
4.059,-0.166,3056
4.060,-0.226,3095
4.061,-0.276,3095
4.062,-0.301,3095
4.063,-0.314,3095
4.064,-0.326,3095
4.065,-0.324,3095
4.066,-0.304,3095
4.067,-0.276,3095
4.068,-0.251,3095
4.069,-0.216,3095
4.070,-0.182,3095
4.071,-0.149,3095
4.072,-0.121,3095
4.073,-0.106,3095
4.074,-0.101,3095
4.075,-0.098,3095
4.076,-0.114,3095
4.077,-0.134,3095
4.078,-0.169,3095
4.079,-0.206,3095
4.080,-0.284,3090
4.081,-0.325,3090
4.082,-0.331,3090
4.083,-0.329,3090
4.084,-0.310,3090
4.085,-0.294,3090
4.086,-0.264,3090
4.087,-0.229,3090
4.088,-0.189,3102
4.089,-0.151,3102
4.090,-0.128,3102
4.091,-0.111,3102
4.092,-0.102,3102
4.093,-0.107,3102
4.094,-0.115,3102
4.095,-0.131,3102
4.096,-0.164,3102
4.097,-0.191,3102
4.098,-0.230,3107
4.099,-0.266,3107
4.100,-0.329,3107
4.101,-0.333,3107
4.102,-0.330,3107
4.103,-0.314,3107
4.104,-0.306,3107
4.105,-0.261,3107
4.106,-0.223,3107
4.107,-0.191,3102
4.108,-0.160,3102
4.109,-0.129,3102
4.110,-0.111,3102
4.111,-0.104,3102
4.112,-0.109,3102
4.113,-0.124,3102
4.114,-0.146,3102
4.115,-0.176,3102
4.116,-0.210,3102
4.117,-0.247,3109
4.118,-0.271,3109
4.119,-0.286,3109
4.120,-0.291,3109
4.121,-0.286,3109
4.122,-0.266,3109
4.123,-0.234,3109
4.124,-0.206,3109
4.125,-0.175,3109
4.126,-0.146,3124
4.127,-0.121,3124
4.128,-0.104,3124
4.129,-0.089,3124
4.130,-0.089,3124
4.131,-0.096,3124
4.132,-0.120,3124
4.133,-0.147,3124
4.134,-0.182,3124
4.135,-0.216,3124
4.136,-0.261,3104
4.137,-0.289,3104
4.138,-0.306,3104
4.139,-0.321,3104
4.140,-0.296,3104
4.141,-0.281,3104
4.142,-0.251,3104
4.143,-0.221,3104
4.144,-0.188,3104
4.145,-0.152,3117
4.146,-0.126,3117
4.147,-0.109,3117
4.148,-0.094,3117
4.149,-0.094,3117
4.150,-0.096,3117
4.151,-0.114,3117
4.152,-0.144,3117
4.153,-0.174,3117
4.154,-0.209,3117
4.155,-0.244,3127
4.156,-0.270,3127
4.157,-0.291,3127
4.158,-0.305,3127
4.159,-0.309,3127
4.160,-0.286,3127
4.161,-0.265,3127
4.162,-0.230,3127
4.163,-0.201,3127
4.164,-0.169,3120
4.165,-0.134,3120
4.166,-0.111,3120
4.167,-0.054,3120
4.168,-0.091,3120
4.169,-0.101,3120
4.170,-0.114,3120
4.171,-0.141,3120
4.172,-0.169,3120
4.173,-0.199,3120
4.174,-0.226,3125
4.175,-0.261,3125
4.176,-0.276,3125
4.177,-0.294,3125
4.178,-0.291,3125
4.179,-0.284,3125
4.180,-0.221,3125
4.181,-0.189,3125
4.182,-0.147,3125
4.183,-0.110,3122
4.184,-0.071,3122
4.185,-0.046,3122
4.186,-0.025,3122
4.187,-0.015,3122
4.188,-0.014,3122
4.189,-0.034,3122
4.190,-0.064,3122
4.191,-0.106,3122
4.192,-0.144,3122
4.193,-0.188,3115
4.194,-0.216,3115
4.195,-0.245,3115
4.196,-0.261,3115
4.197,-0.261,3115
4.198,-0.250,3115
4.199,-0.229,3115
4.200,-0.152,3115
4.201,-0.116,3115
4.202,-0.094,3122
4.203,-0.056,3122
4.204,-0.039,3122
4.205,-0.024,3122
4.206,-0.014,3122
4.207,-0.009,3122
4.208,-0.010,3122
4.209,-0.024,3122
4.210,-0.041,3122
4.211,-0.069,3122
4.212,-0.102,3097
4.213,-0.131,3097
4.214,-0.154,3097
4.215,-0.174,3097
4.216,-0.181,3097
4.217,-0.174,3097
4.218,-0.161,3097
4.219,-0.134,3097
4.220,-0.071,3097
4.221,-0.050,3118
4.222,-0.029,3118
4.223,-0.014,3118
4.224,-0.009,3118
4.225,-0.006,3118
4.226,-0.015,3118
4.227,-0.035,3118
4.228,-0.061,3118
4.229,-0.101,3118
4.230,-0.136,3118
4.231,-0.184,3122
4.232,-0.216,3122
4.233,-0.245,3122
4.234,-0.261,3122
4.235,-0.269,3122
4.236,-0.264,3122
4.237,-0.246,3122
4.238,-0.226,3122
4.239,-0.203,3122
4.240,-0.146,3109
4.241,-0.114,3109
4.242,-0.107,3109
4.243,-0.121,3109
4.244,-0.138,3109
4.245,-0.186,3109
4.246,-0.221,3109
4.247,-0.254,3114
4.248,-0.286,3114
4.249,-0.306,3114
4.250,-0.326,3114
4.251,-0.329,3114
4.252,-0.321,3114
4.253,-0.296,3114
4.254,-0.274,3114
4.255,-0.254,3114
4.256,-0.224,3114
4.257,-0.204,3114
4.258,-0.181,3083
4.259,-0.163,3083
4.260,-0.149,3083
4.261,-0.164,3083
4.262,-0.176,3083
4.263,-0.201,3083
4.264,-0.231,3083
4.265,-0.266,3083
4.266,-0.294,3083
4.267,-0.326,3102
4.268,-0.346,3102
4.269,-0.362,3102
4.270,-0.369,3102
4.271,-0.361,3102
4.272,-0.344,3102
4.273,-0.311,3102
4.274,-0.282,3102
4.275,-0.244,3102
4.276,-0.204,3102
4.277,-0.164,3096
4.278,-0.131,3096
4.279,-0.107,3096
4.280,-0.095,3096
4.281,-0.106,3096
4.282,-0.129,3096
4.283,-0.163,3096
4.284,-0.204,3096
4.285,-0.250,3096
4.286,-0.289,3094
4.287,-0.325,3094
4.288,-0.345,3094
4.289,-0.354,3094
4.290,-0.354,3094
4.291,-0.343,3094
4.292,-0.321,3094
4.293,-0.289,3094
4.294,-0.255,3094
4.295,-0.217,3094
4.296,-0.186,3110
4.297,-0.161,3110
4.298,-0.136,3110
4.299,-0.129,3110
4.300,-0.145,3110
4.301,-0.169,3110
4.302,-0.196,3110
4.303,-0.231,3110
4.304,-0.266,3110
4.305,-0.296,3108
4.306,-0.326,3108
4.307,-0.341,3108
4.308,-0.336,3108
4.309,-0.333,3108
4.310,-0.310,3108
4.311,-0.287,3108
4.312,-0.261,3108
4.313,-0.224,3108
4.314,-0.189,3108
4.315,-0.166,3086
4.316,-0.138,3086
4.317,-0.126,3086
4.318,-0.124,3086
4.319,-0.136,3086
4.320,-0.205,3086
4.321,-0.231,3086
4.322,-0.286,3086
4.323,-0.336,3086
4.324,-0.383,3084
4.325,-0.430,3084
4.326,-0.461,3084
4.327,-0.484,3084
4.328,-0.486,3084
4.329,-0.469,3084
4.330,-0.436,3084
4.331,-0.390,3084
4.332,-0.344,3084
4.333,-0.286,3084
4.334,-0.226,3093
4.335,-0.166,3093
4.336,-0.091,3093
4.337,-0.029,3093
4.338,0.044,3093
4.339,0.110,3093
4.340,0.264,3093
4.341,0.326,3093
4.342,0.409,3093
4.343,0.504,3098
4.344,0.611,3098
4.345,0.741,3098
4.346,0.877,3098
4.347,1.036,3098
4.348,1.219,3098
4.349,1.434,3098
4.350,1.671,3098
4.351,1.930,3098
4.352,2.184,3098
4.353,2.424,3104
4.354,2.559,3104
4.355,2.559,3104
4.356,2.559,3104
4.357,2.559,3104
4.358,2.494,3104
4.359,2.337,3104
4.360,1.869,3104
4.361,1.657,3104
4.362,1.419,3096
4.363,1.185,3096
4.364,0.971,3096
4.365,0.759,3096
4.366,0.574,3096
4.367,0.396,3096
4.368,0.256,3096
4.369,0.135,3096
4.370,0.035,3096
4.371,-0.045,3096
4.372,-0.106,3121
4.373,-0.161,3121
4.374,-0.209,3121
4.375,-0.256,3121
4.376,-0.302,3121
4.377,-0.350,3121
4.378,-0.401,3121
4.379,-0.451,3121
4.380,-0.569,3121
4.381,-0.601,3122
4.382,-0.626,3122
4.383,-0.649,3122
4.384,-0.649,3122
4.385,-0.627,3122
4.386,-0.596,3122
4.387,-0.556,3122
4.388,-0.511,3122
4.389,-0.464,3122
4.390,-0.424,3122
4.391,-0.383,3101
4.392,-0.352,3101
4.393,-0.336,3101
4.394,-0.336,3101
4.395,-0.346,3101
4.396,-0.365,3101
4.397,-0.381,3101
4.398,-0.416,3101
4.399,-0.446,3101
4.400,-0.501,3125
4.401,-0.509,3125
4.402,-0.506,3125
4.403,-0.491,3125
4.404,-0.456,3125
4.405,-0.429,3125
4.406,-0.403,3125
4.407,-0.367,3125
4.408,-0.341,3125
4.409,-0.321,3105
4.410,-0.295,3105
4.411,-0.291,3105
4.412,-0.294,3105
4.413,-0.311,3105
4.414,-0.336,3105
4.415,-0.391,3105
4.416,-0.411,3105
4.417,-0.441,3105
4.418,-0.469,3105
4.419,-0.494,3118
4.420,-0.526,3118
4.421,-0.524,3118
4.422,-0.510,3118
4.423,-0.489,3118
4.424,-0.451,3118
4.425,-0.417,3118
4.426,-0.381,3118
4.427,-0.351,3118
4.428,-0.321,3119
4.429,-0.296,3119
4.430,-0.286,3119
4.431,-0.287,3119
4.432,-0.291,3119
4.433,-0.306,3119
4.434,-0.329,3119
4.435,-0.354,3119
4.436,-0.386,3119
4.437,-0.415,3119
4.438,-0.436,3114
4.439,-0.456,3114
4.440,-0.456,3114
4.441,-0.454,3114
4.442,-0.435,3114
4.443,-0.409,3114
4.444,-0.374,3114
4.445,-0.336,3114
4.446,-0.291,3114
4.447,-0.284,3121
4.448,-0.266,3121
4.449,-0.256,3121
4.450,-0.255,3121
4.451,-0.261,3121
4.452,-0.270,3121
4.453,-0.287,3121
4.454,-0.309,3121
4.455,-0.341,3121
4.456,-0.366,3121
4.457,-0.389,3122
4.458,-0.415,3122
4.459,-0.429,3122
4.460,-0.414,3122
4.461,-0.394,3122
4.462,-0.364,3122
4.463,-0.328,3122
4.464,-0.286,3122
4.465,-0.246,3122
4.466,-0.205,3113
4.467,-0.175,3113
4.468,-0.164,3113
4.469,-0.163,3113
4.470,-0.169,3113
4.471,-0.190,3113
4.472,-0.215,3113
4.473,-0.254,3113
4.474,-0.294,3113
4.475,-0.336,3113
4.476,-0.371,3114
4.477,-0.404,3114
4.478,-0.416,3114
4.479,-0.416,3114
4.480,-0.376,3114
4.481,-0.349,3114
4.482,-0.324,3114
4.483,-0.287,3114
4.484,-0.255,3114
4.485,-0.226,3109
4.486,-0.204,3109
4.487,-0.191,3109
4.488,-0.189,3109
4.489,-0.196,3109
4.490,-0.215,3109
4.491,-0.245,3109
4.492,-0.271,3109
4.493,-0.301,3109
4.494,-0.335,3109
4.495,-0.361,3122
4.496,-0.384,3122
4.497,-0.389,3122
4.498,-0.386,3122
4.499,-0.371,3122
4.500,-0.301,3122
4.501,-0.260,3122
4.502,-0.221,3122
4.503,-0.184,3122
4.504,-0.146,3105
4.505,-0.122,3105
4.506,-0.106,3105
4.507,-0.106,3105
4.508,-0.106,3105
4.509,-0.125,3105
4.510,-0.121,3105
4.511,-0.189,3105
4.512,-0.224,3105
4.513,-0.261,3105
4.514,-0.290,3105
4.515,-0.324,3108
4.516,-0.334,3108
4.517,-0.336,3108
4.518,-0.330,3108
4.519,-0.309,3108
4.520,-0.231,3108
4.521,-0.196,3108
4.522,-0.149,3108
4.523,-0.109,3108
4.524,-0.074,3093
4.525,-0.049,3093
4.526,-0.044,3093
4.527,-0.044,3093
4.528,-0.054,3093
4.529,-0.085,3093
4.530,-0.116,3093
4.531,-0.161,3093
4.532,-0.194,3093
4.533,-0.219,3093
4.534,-0.245,3102
4.535,-0.250,3102
4.536,-0.251,3102
4.537,-0.234,3102
4.538,-0.214,3102
4.539,-0.193,3102
4.540,-0.091,3102
4.541,-0.101,3102
4.542,-0.070,3102
4.543,-0.046,3094
4.544,-0.029,3094
4.545,-0.016,3094
4.546,-0.016,3094
4.547,-0.026,3094
4.548,-0.041,3094
4.549,-0.066,3094
4.550,-0.091,3094
4.551,-0.122,3094
4.552,-0.145,3094
4.553,-0.169,3085
4.554,-0.184,3085
4.555,-0.189,3085
4.556,-0.181,3085
4.557,-0.166,3085
4.558,-0.139,3085
4.559,-0.109,3085
4.560,-0.034,3085
4.561,-0.014,3085
4.562,0.021,3086
4.563,0.033,3086
4.564,0.036,3086
4.565,0.029,3086
4.566,0.011,3086
4.567,-0.021,3086
4.568,-0.050,3086
4.569,-0.084,3086
4.570,-0.111,3086
4.571,-0.134,3086
4.572,-0.161,3088
4.573,-0.176,3088
4.574,-0.174,3088
4.575,-0.161,3088
4.576,-0.136,3088
4.577,-0.111,3088
4.578,-0.086,3088
4.579,-0.054,3088
4.580,0.019,3099
4.581,0.056,3099
4.582,0.059,3099
4.583,0.054,3099
4.584,0.036,3099
4.585,0.014,3099
4.586,-0.024,3099
4.587,-0.054,3099
4.588,-0.086,3099
4.589,-0.115,3099
4.590,-0.144,3108
4.591,-0.168,3108
4.592,-0.172,3108
4.593,-0.174,3108
4.594,-0.152,3108
4.595,-0.129,3108
4.596,-0.102,3108
4.597,-0.069,3108
4.598,-0.041,3108
4.599,-0.016,3108
4.600,0.006,3105
4.601,-0.024,3105
4.602,-0.051,3105
4.603,-0.072,3105
4.604,-0.106,3105
4.605,-0.141,3105
4.606,-0.181,3105
4.607,-0.214,3105
4.608,-0.246,3087
4.609,-0.264,3087
4.610,-0.269,3087
4.611,-0.265,3087
4.612,-0.246,3087
4.613,-0.223,3087
4.614,-0.194,3087
4.615,-0.166,3087
4.616,-0.134,3087
4.617,-0.121,3087
4.618,-0.115,3117
4.619,-0.109,3117
4.620,-0.131,3117
4.621,-0.150,3117
4.622,-0.186,3117
4.623,-0.223,3117
4.624,-0.261,3117
4.625,-0.291,3117
4.626,-0.333,3117
4.627,-0.361,3118
4.628,-0.381,3118
4.629,-0.385,3118
4.630,-0.375,3118
4.631,-0.356,3118
4.632,-0.341,3118
4.633,-0.321,3118
4.634,-0.287,3118
4.635,-0.261,3118
4.636,-0.233,3118
4.637,-0.210,3120
4.638,-0.193,3120
4.639,-0.189,3120
4.640,-0.217,3120
4.641,-0.249,3120
4.642,-0.284,3120
4.643,-0.324,3120
4.644,-0.364,3120
4.645,-0.401,3120
4.646,-0.429,3123
4.647,-0.451,3123
4.648,-0.461,3123
4.649,-0.459,3123
4.650,-0.448,3123
4.651,-0.429,3123
4.652,-0.401,3123
4.653,-0.366,3123
4.654,-0.331,3123
4.655,-0.294,3123
4.656,-0.266,3135
4.657,-0.246,3135
4.658,-0.234,3135
4.659,-0.235,3135
4.660,-0.275,3135
4.661,-0.296,3135
4.662,-0.328,3135
4.663,-0.352,3135
4.664,-0.386,3135
4.665,-0.414,3111
4.666,-0.434,3111
4.667,-0.441,3111
4.668,-0.436,3111
4.669,-0.424,3111
4.670,-0.388,3111
4.671,-0.351,3111
4.672,-0.311,3111
4.673,-0.281,3111
4.674,-0.251,3111
4.675,-0.229,3094
4.676,-0.221,3094
4.677,-0.224,3094
4.678,-0.242,3094
4.679,-0.264,3094
4.680,-0.321,3094
4.681,-0.354,3094
4.682,-0.375,3094
4.683,-0.409,3094
4.684,-0.432,3137
4.685,-0.451,3137
4.686,-0.456,3137
4.687,-0.451,3137
4.688,-0.434,3137
4.689,-0.411,3137
4.690,-0.376,3137
4.691,-0.346,3137
4.692,-0.311,3137
4.693,-0.275,3137
4.694,-0.249,3115
4.695,-0.230,3115
4.696,-0.226,3115
4.697,-0.234,3115
4.698,-0.250,3115
4.699,-0.271,3115
4.700,-0.329,3115
4.701,-0.349,3115
4.702,-0.374,3115
4.703,-0.391,3121
4.704,-0.409,3121
4.705,-0.411,3121
4.706,-0.407,3121
4.707,-0.386,3121
4.708,-0.364,3121
4.709,-0.334,3121
4.710,-0.297,3121
4.711,-0.269,3121
4.712,-0.245,3121
4.713,-0.224,3135
4.714,-0.215,3135
4.715,-0.221,3135
4.716,-0.229,3135
4.717,-0.251,3135
4.718,-0.281,3135
4.719,-0.309,3135
4.720,-0.374,3135
4.721,-0.394,3135
4.722,-0.412,3133
4.723,-0.424,3133
4.724,-0.416,3133
4.725,-0.401,3133
4.726,-0.369,3133
4.727,-0.341,3133
4.728,-0.304,3133
4.729,-0.269,3133
4.730,-0.231,3133
4.731,-0.205,3133
4.732,-0.172,3111
4.733,-0.161,3111
4.734,-0.145,3111
4.735,-0.149,3111
4.736,-0.169,3111
4.737,-0.196,3111
4.738,-0.229,3111
4.739,-0.266,3111
4.740,-0.335,3111
4.741,-0.365,3097
4.742,-0.391,3097
4.743,-0.394,3097
4.744,-0.385,3097
4.745,-0.361,3097
4.746,-0.334,3097
4.747,-0.292,3097
4.748,-0.256,3097
4.749,-0.216,3097
4.750,-0.186,3130
4.751,-0.169,3130
4.752,-0.152,3130
4.753,-0.161,3130
4.754,-0.166,3130
4.755,-0.185,3130
4.756,-0.211,3130
4.757,-0.246,3130
4.758,-0.281,3130
4.759,-0.306,3130
4.760,-0.359,3100
4.761,-0.364,3100
4.762,-0.350,3100
4.763,-0.329,3100
4.764,-0.295,3100
4.765,-0.265,3100
4.766,-0.229,3100
4.767,-0.201,3100
4.768,-0.184,3100
4.769,-0.175,3098
4.770,-0.174,3098
4.771,-0.188,3098
4.772,-0.206,3098
4.773,-0.231,3098
4.774,-0.266,3098
4.775,-0.295,3098
4.776,-0.334,3098
4.777,-0.356,3098
4.778,-0.375,3098
4.779,-0.384,3110
4.780,-0.375,3110
4.781,-0.347,3110
4.782,-0.323,3110
4.783,-0.285,3110
4.784,-0.255,3110
4.785,-0.224,3110
4.786,-0.191,3110
4.787,-0.171,3110
4.788,-0.154,3104
4.789,-0.151,3104
4.790,-0.161,3104
4.791,-0.176,3104
4.792,-0.201,3104
4.793,-0.229,3104
4.794,-0.266,3104
4.795,-0.302,3104
4.796,-0.329,3104
4.797,-0.347,3104
4.798,-0.354,3103
4.799,-0.352,3103
4.800,-0.306,3103
4.801,-0.286,3103
4.802,-0.251,3103
4.803,-0.206,3103
4.804,-0.172,3103
4.805,-0.141,3103
4.806,-0.121,3103
4.807,-0.111,3095
4.808,-0.121,3095
4.809,-0.139,3095
4.810,-0.166,3095
4.811,-0.196,3095
4.812,-0.231,3095
4.813,-0.274,3095
4.814,-0.311,3095
4.815,-0.344,3095
4.816,-0.366,3095
4.817,-0.378,3097
4.818,-0.379,3097
4.819,-0.374,3097
4.820,-0.346,3097
4.821,-0.291,3097
4.822,-0.256,3097
4.823,-0.224,3097
4.824,-0.206,3097
4.825,-0.194,3110
4.826,-0.190,3110
4.827,-0.194,3110
4.828,-0.204,3110
4.829,-0.224,3110
4.830,-0.251,3110
4.831,-0.281,3110
4.832,-0.314,3110
4.833,-0.344,3110
4.834,-0.369,3110
4.835,-0.374,3099
4.836,-0.379,3099
4.837,-0.376,3099
4.838,-0.366,3099
4.839,-0.341,3099
4.840,-0.271,3099
4.841,-0.231,3099
4.842,-0.203,3099
4.843,-0.170,3099
4.844,-0.146,3109
4.845,-0.134,3109
4.846,-0.136,3109
4.847,-0.161,3109
4.848,-0.186,3109
4.849,-0.219,3109
4.850,-0.261,3109
4.851,-0.296,3109
4.852,-0.331,3109
4.853,-0.351,3109
4.854,-0.365,3096
4.855,-0.365,3096
4.856,-0.354,3096
4.857,-0.343,3096
4.858,-0.320,3096
4.859,-0.286,3096
4.860,-0.229,3096
4.861,-0.198,3096
4.862,-0.186,3096
4.863,-0.174,3101
4.864,-0.186,3101
4.865,-0.198,3101
4.866,-0.224,3101
4.867,-0.251,3101
4.868,-0.284,3101
4.869,-0.309,3101
4.870,-0.335,3101
4.871,-0.354,3101
4.872,-0.364,3095
4.873,-0.366,3095
4.874,-0.355,3095
4.875,-0.344,3095
4.876,-0.321,3095
4.877,-0.289,3095
4.878,-0.263,3095
4.879,-0.233,3095
4.880,-0.191,3080
4.881,-0.191,3080
4.882,-0.209,3080
4.883,-0.223,3080
4.884,-0.256,3080
4.885,-0.290,3080
4.886,-0.326,3080
4.887,-0.354,3080
4.888,-0.379,3080
4.889,-0.401,3080
4.890,-0.403,3089
4.891,-0.401,3089
4.892,-0.375,3089
4.893,-0.346,3089
4.894,-0.309,3089
4.895,-0.271,3089
4.896,-0.241,3089
4.897,-0.207,3089
4.898,-0.184,3089
4.899,-0.164,3089
4.900,-0.150,3127
4.901,-0.185,3127
4.902,-0.210,3127
4.903,-0.246,3127
4.904,-0.280,3127
4.905,-0.312,3127
4.906,-0.344,3127
4.907,-0.366,3127
4.908,-0.376,3110
4.909,-0.383,3110
4.910,-0.426,3110
4.911,-0.390,3110
4.912,-0.331,3110
4.913,-0.297,3110
4.914,-0.264,3110
4.915,-0.224,3110
4.916,-0.194,3110
4.917,-0.166,3110
4.918,-0.149,3115
4.919,-0.145,3115
4.920,-0.169,3115
4.921,-0.191,3115
4.922,-0.221,3115
4.923,-0.255,3115
4.924,-0.286,3115
4.925,-0.310,3115
4.926,-0.331,3115
4.927,-0.336,3129
4.928,-0.331,3129
4.929,-0.314,3129
4.930,-0.292,3129
4.931,-0.270,3129
4.932,-0.244,3129
4.933,-0.214,3129
4.934,-0.190,3129
4.935,-0.166,3129
4.936,-0.142,3129
4.937,-0.129,3133
4.938,-0.131,3133
4.939,-0.142,3133
4.940,-0.201,3133
4.941,-0.285,3133
4.942,-0.324,3133
4.943,-0.349,3133
4.944,-0.374,3133
4.945,-0.385,3117
4.946,-0.386,3117
4.947,-0.371,3117
4.948,-0.350,3117
4.949,-0.324,3117
4.950,-0.284,3117
4.951,-0.246,3117
4.952,-0.210,3117
4.953,-0.181,3117
4.954,-0.149,3117
4.955,-0.131,3111
4.956,-0.126,3111
4.957,-0.139,3111
4.958,-0.164,3111
4.959,-0.189,3111
4.960,-0.266,3111
4.961,-0.290,3111
4.962,-0.325,3111
4.963,-0.344,3111
4.964,-0.354,3137
4.965,-0.356,3137
4.966,-0.346,3137
4.967,-0.321,3137
4.968,-0.286,3137
4.969,-0.246,3137
4.970,-0.206,3137
4.971,-0.169,3137
4.972,-0.130,3137
4.973,-0.106,3137
4.974,-0.089,3125
4.975,-0.086,3125
4.976,-0.091,3125
4.977,-0.109,3125
4.978,-0.126,3125
4.979,-0.152,3125
4.980,-0.219,3125
4.981,-0.246,3125
4.982,-0.261,3125
4.983,-0.271,3129
4.984,-0.280,3129
4.985,-0.274,3129
4.986,-0.266,3129
4.987,-0.245,3129
4.988,-0.216,3129
4.989,-0.188,3129
4.990,-0.161,3129
4.991,-0.129,3129
4.992,-0.104,3129
4.993,-0.094,3127
4.994,-0.085,3127
4.995,-0.090,3127
4.996,-0.101,3127
4.997,-0.117,3127
4.998,-0.146,3127
4.999,-0.184,3127
5.000,-0.266,3127
5.001,-0.281,3127
5.002,-0.291,3076
5.003,-0.291,3076
5.004,-0.281,3076
5.005,-0.253,3076
5.006,-0.217,3076
5.007,-0.191,3076
5.008,-0.146,3076
5.009,-0.115,3076
5.010,-0.086,3076
5.011,-0.059,3076
5.012,-0.041,3114
5.013,-0.033,3114
5.014,-0.041,3114
5.015,-0.081,3114
5.016,-0.109,3114
5.017,-0.136,3114
5.018,-0.170,3114
5.019,-0.186,3114
5.020,-0.204,3114
5.021,-0.176,3114
5.022,-0.149,3114
5.023,-0.121,3114
5.024,-0.089,3114
5.025,-0.058,3114
5.026,-0.041,3114
5.027,-0.028,3114
5.028,-0.026,3114
5.029,-0.037,3101
5.030,-0.056,3101
5.031,-0.086,3101
5.032,-0.121,3101
5.033,-0.166,3101
5.034,-0.209,3101
5.035,-0.246,3101
5.036,-0.274,3101
5.037,-0.301,3101
5.038,-0.324,3101
5.039,-0.331,3094
5.040,-0.309,3094
5.041,-0.289,3094
5.042,-0.261,3094
5.043,-0.228,3094
5.044,-0.196,3094
5.045,-0.171,3094
5.046,-0.149,3094
5.047,-0.130,3094
5.048,-0.129,3092
5.049,-0.131,3092
5.050,-0.150,3092
5.051,-0.175,3092
5.052,-0.204,3092
5.053,-0.241,3092
5.054,-0.280,3092
5.055,-0.310,3092
5.056,-0.334,3092
5.057,-0.350,3092
5.058,-0.346,3092
5.059,-0.335,3092
5.060,-0.284,3092
5.061,-0.254,3092
5.062,-0.214,3092
5.063,-0.144,3092
5.064,-0.149,3092
5.065,-0.129,3092
5.066,-0.121,3092
5.067,-0.121,3101
5.068,-0.131,3101
5.069,-0.151,3101
5.070,-0.184,3101
5.071,-0.214,3101
5.072,-0.249,3101
5.073,-0.285,3101
5.074,-0.310,3101
5.075,-0.334,3101
5.076,-0.350,3101
5.077,-0.350,3101
5.078,-0.341,3101
5.079,-0.323,3101
5.080,-0.256,3101
5.081,-0.221,3101
5.082,-0.189,3101
5.083,-0.151,3101
5.084,-0.129,3101
5.085,-0.110,3101
5.086,-0.107,3111
5.087,-0.116,3111
5.088,-0.138,3111
5.089,-0.166,3111
5.090,-0.201,3111
5.091,-0.233,3111
5.092,-0.269,3111
5.093,-0.301,3111
5.094,-0.325,3111
5.095,-0.341,3111
5.096,-0.343,3075
5.097,-0.335,3075
5.098,-0.314,3075
5.099,-0.294,3075
5.100,-0.210,3075
5.101,-0.175,3075
5.102,-0.145,3075
5.103,-0.116,3075
5.104,-0.101,3075
5.105,-0.096,3099
5.106,-0.107,3099
5.107,-0.124,3099
5.108,-0.149,3099
5.109,-0.186,3099
5.110,-0.225,3099
5.111,-0.261,3099
5.112,-0.296,3099
5.113,-0.324,3099
5.114,-0.344,3099
5.115,-0.350,3102
5.116,-0.349,3102
5.117,-0.335,3102
5.118,-0.323,3102
5.119,-0.294,3102
5.120,-0.246,3102
5.121,-0.226,3102
5.122,-0.216,3102
5.123,-0.217,3102
5.124,-0.226,3117
5.125,-0.250,3117
5.126,-0.274,3117
5.127,-0.305,3117
5.128,-0.343,3117
5.129,-0.362,3117
5.130,-0.381,3117
5.131,-0.388,3117
5.132,-0.385,3117
5.133,-0.369,3117
5.134,-0.340,3107
5.135,-0.280,3107
5.136,-0.206,3107
5.137,-0.114,3107
5.138,-0.009,3107
5.139,0.111,3107
5.140,0.391,3107
5.141,0.504,3107
5.142,0.631,3107
5.143,0.766,3127
5.144,0.904,3127
5.145,1.026,3127
5.146,1.156,3127
5.147,1.289,3127
5.148,1.416,3127
5.149,1.564,3127
5.150,1.705,3127
5.151,1.847,3127
5.152,1.976,3127
5.153,2.091,3121
5.154,2.174,3121
5.155,2.226,3121
5.156,2.237,3121
5.157,2.214,3121
5.158,2.159,3121
5.159,2.070,3121
5.160,1.744,3121
5.161,1.395,3123
5.162,1.186,3123
5.163,0.956,3123
5.164,0.764,3123
5.165,0.544,3123
5.166,0.336,3123
5.167,0.146,3123
5.168,-0.031,3123
5.169,-0.186,3123
5.170,-0.309,3123
5.171,-0.409,3105
5.172,-0.484,3105
5.173,-0.529,3105
5.174,-0.561,3105
5.175,-0.566,3105
5.176,-0.562,3105
5.177,-0.544,3105
5.178,-0.524,3105
5.179,-0.501,3105
5.180,-0.474,3129
5.181,-0.491,3129
5.182,-0.505,3129
5.183,-0.525,3129
5.184,-0.551,3129
5.185,-0.578,3129
5.186,-0.600,3129
5.187,-0.593,3129
5.188,-0.609,3129
5.189,-0.591,3104
5.190,-0.574,3104
5.191,-0.544,3104
5.192,-0.507,3104
5.193,-0.466,3104
5.194,-0.429,3104
5.195,-0.389,3104
5.196,-0.356,3104
5.197,-0.330,3104
5.198,-0.307,3104
5.199,-0.301,3123
5.200,-0.311,3123
5.201,-0.330,3123
5.202,-0.351,3123
5.203,-0.374,3123
5.204,-0.406,3123
5.205,-0.429,3123
5.206,-0.448,3123
5.207,-0.454,3123
5.208,-0.459,3136
5.209,-0.451,3136
5.210,-0.436,3136
5.211,-0.414,3136
5.212,-0.386,3136
5.213,-0.355,3136
5.214,-0.330,3136
5.215,-0.304,3136
5.216,-0.286,3136
5.217,-0.271,3136
5.218,-0.270,3104
5.219,-0.281,3104
5.220,-0.328,3104
5.221,-0.351,3104
5.222,-0.381,3104
5.223,-0.414,3104
5.224,-0.443,3104
5.225,-0.458,3104
5.226,-0.469,3104
5.227,-0.470,3117
5.228,-0.461,3117
5.229,-0.444,3117
5.230,-0.412,3117
5.231,-0.370,3117
5.232,-0.331,3117
5.233,-0.292,3117
5.234,-0.256,3117
5.235,-0.226,3117
5.236,-0.211,3117
5.237,-0.209,3105
5.238,-0.216,3105
5.239,-0.231,3105
5.240,-0.302,3105
5.241,-0.331,3105
5.242,-0.361,3105
5.243,-0.390,3105
5.244,-0.411,3105
5.245,-0.424,3105
5.246,-0.426,3108
5.247,-0.411,3108
5.248,-0.386,3108
5.249,-0.356,3108
5.250,-0.324,3108
5.251,-0.282,3108
5.252,-0.242,3108
5.253,-0.206,3108
5.254,-0.181,3108
5.255,-0.165,3108
5.256,-0.161,3101
5.257,-0.174,3101
5.258,-0.189,3101
5.259,-0.224,3101
5.260,-0.324,3101
5.261,-0.355,3101
5.262,-0.376,3101
5.263,-0.390,3101
5.264,-0.401,3101
5.265,-0.400,3099
5.266,-0.383,3099
5.267,-0.364,3099
5.268,-0.336,3099
5.269,-0.305,3099
5.270,-0.270,3099
5.271,-0.235,3099
5.272,-0.209,3099
5.273,-0.185,3099
5.274,-0.169,3099
5.275,-0.166,3099
5.276,-0.170,3099
5.277,-0.188,3099
5.278,-0.211,3099
5.279,-0.249,3099
5.280,-0.309,3099
5.281,-0.321,3099
5.282,-0.341,3099
5.283,-0.346,3099
5.284,-0.344,3099
5.285,-0.335,3102
5.286,-0.311,3102
5.287,-0.289,3102
5.288,-0.255,3102
5.289,-0.224,3102
5.290,-0.191,3102
5.291,-0.169,3102
5.292,-0.147,3102
5.293,-0.136,3102
5.294,-0.136,3104
5.295,-0.151,3104
5.296,-0.171,3104
5.297,-0.196,3104
5.298,-0.226,3104
5.299,-0.260,3104
5.300,-0.326,3104
5.301,-0.344,3104
5.302,-0.356,3104
5.303,-0.361,3104
5.304,-0.351,3113
5.305,-0.331,3113
5.306,-0.304,3113
5.307,-0.266,3113
5.308,-0.226,3113
5.309,-0.186,3113
5.310,-0.149,3113
5.311,-0.120,3113
5.312,-0.101,3113
5.313,-0.091,3113
5.314,-0.094,3101
5.315,-0.109,3101
5.316,-0.131,3101
5.317,-0.161,3101
5.318,-0.190,3101
5.319,-0.214,3101
5.320,-0.261,3101
5.321,-0.265,3101
5.322,-0.265,3101
5.323,-0.254,3093
5.324,-0.233,3093
5.325,-0.206,3093
5.326,-0.181,3093
5.327,-0.146,3093
5.328,-0.111,3093
5.329,-0.086,3093
5.330,-0.064,3093
5.331,-0.049,3093
5.332,-0.044,3093
5.333,-0.049,3110
5.334,-0.064,3110
5.335,-0.089,3110
5.336,-0.115,3110
5.337,-0.147,3110
5.338,-0.176,3110
5.339,-0.204,3110
5.340,-0.229,3110
5.341,-0.228,3110
5.342,-0.216,3091
5.343,-0.191,3091
5.344,-0.164,3091
5.345,-0.116,3091
5.346,-0.071,3091
5.347,-0.036,3091
5.348,-0.005,3091
5.349,0.026,3091
5.350,0.039,3091
5.351,0.046,3091
5.352,0.039,3105
5.353,0.021,3105
5.354,-0.021,3105
5.355,-0.055,3105
5.356,-0.096,3105
5.357,-0.136,3105
5.358,-0.174,3105
5.359,-0.195,3105
5.360,-0.196,3111
5.361,-0.146,3111
5.362,-0.114,3111
5.363,-0.072,3111
5.364,-0.044,3111
5.365,-0.011,3111
5.366,0.021,3111
5.367,0.036,3111
5.368,0.044,3111
5.369,0.039,3111
5.370,0.026,3123
5.371,-0.005,3123
5.372,-0.028,3123
5.373,-0.056,3123
5.374,-0.091,3123
5.375,-0.134,3123
5.376,-0.136,3123
5.377,-0.152,3123
5.378,-0.164,3123
5.379,-0.161,3123
5.380,-0.109,3100
5.381,-0.051,3100
5.382,-0.016,3100
5.383,0.019,3100
5.384,0.039,3100
5.385,0.055,3100
5.386,0.059,3100
5.387,0.056,3100
5.388,0.037,3115
5.389,0.010,3115
5.390,-0.034,3115
5.391,-0.070,3115
5.392,-0.113,3115
5.393,-0.146,3115
5.394,-0.181,3115
5.395,-0.194,3115
5.396,-0.206,3115
5.397,-0.206,3115
5.398,-0.194,3115
5.399,-0.181,3115
5.400,-0.126,3115
5.401,-0.066,3115
5.402,-0.045,3115
5.403,-0.031,3115
5.404,-0.028,3115
5.405,-0.066,3115
5.406,-0.049,3126
5.407,-0.080,3126
5.408,-0.111,3126
5.409,-0.149,3126
5.410,-0.193,3126
5.411,-0.229,3126
5.412,-0.264,3126
5.413,-0.285,3126
5.414,-0.294,3126
5.415,-0.291,3126
5.416,-0.281,3126
5.417,-0.256,3126
5.418,-0.228,3126
5.419,-0.191,3126
5.420,-0.124,3126
5.421,-0.106,3126
5.422,-0.091,3126
5.423,-0.090,3126
5.424,-0.106,3126
5.425,-0.131,3120
5.426,-0.169,3120
5.427,-0.209,3120
5.428,-0.254,3120
5.429,-0.299,3120
5.430,-0.344,3120
5.431,-0.374,3120
5.432,-0.403,3120
5.433,-0.411,3120
5.434,-0.410,3120
5.435,-0.400,3140
5.436,-0.374,3140
5.437,-0.346,3140
5.438,-0.311,3140
5.439,-0.284,3140
5.440,-0.211,3140
5.441,-0.195,3140
5.442,-0.182,3140
5.443,-0.181,3140
5.444,-0.189,3118
5.445,-0.206,3118
5.446,-0.231,3118
5.447,-0.265,3118
5.448,-0.291,3118
5.449,-0.328,3118
5.450,-0.356,3118
5.451,-0.385,3118
5.452,-0.409,3118
5.453,-0.416,3118
5.454,-0.411,3115
5.455,-0.406,3115
5.456,-0.384,3115
5.457,-0.357,3115
5.458,-0.326,3115
5.459,-0.291,3115
5.460,-0.233,3115
5.461,-0.216,3115
5.462,-0.210,3115
5.463,-0.211,3118
5.464,-0.226,3118
5.465,-0.256,3118
5.466,-0.284,3118
5.467,-0.331,3118
5.468,-0.371,3118
5.469,-0.409,3118
5.470,-0.431,3118
5.471,-0.446,3118
5.472,-0.448,3118
5.473,-0.436,3116
5.474,-0.421,3116
5.475,-0.389,3116
5.476,-0.354,3116
5.477,-0.323,3116
5.478,-0.281,3116
5.479,-0.253,3116
5.480,-0.210,3116
5.481,-0.209,3116
5.482,-0.212,3136
5.483,-0.231,3136
5.484,-0.264,3136
5.485,-0.290,3136
5.486,-0.329,3136
5.487,-0.351,3136
5.488,-0.371,3136
5.489,-0.389,3136
5.490,-0.394,3136
5.491,-0.390,3136
5.492,-0.375,3115
5.493,-0.356,3115
5.494,-0.335,3115
5.495,-0.306,3115
5.496,-0.274,3115
5.497,-0.246,3115
5.498,-0.212,3115
5.499,-0.191,3115
5.500,-0.185,3115
5.501,-0.193,3116
5.502,-0.216,3116
5.503,-0.242,3116
5.504,-0.271,3116
5.505,-0.299,3116
5.506,-0.334,3116
5.507,-0.361,3116
5.508,-0.381,3116
5.509,-0.394,3116
5.510,-0.401,3116
5.511,-0.385,3134
5.512,-0.365,3134
5.513,-0.336,3134
5.514,-0.305,3134
5.515,-0.273,3134
5.516,-0.244,3134
5.517,-0.214,3134
5.518,-0.190,3134
5.519,-0.171,3134
5.520,-0.164,3103
5.521,-0.206,3103
5.522,-0.228,3103
5.523,-0.255,3103
5.524,-0.285,3103
5.525,-0.311,3103
5.526,-0.336,3103
5.527,-0.343,3103
5.528,-0.344,3103
5.529,-0.306,3103
5.530,-0.329,3102
5.531,-0.291,3102
5.532,-0.266,3102
5.533,-0.241,3102
5.534,-0.209,3102
5.535,-0.190,3102
5.536,-0.174,3102
5.537,-0.166,3102
5.538,-0.161,3102
5.539,-0.168,3102
5.540,-0.204,3111
5.541,-0.261,3111
5.542,-0.289,3111
5.543,-0.314,3111
5.544,-0.334,3111
5.545,-0.341,3111
5.546,-0.344,3111
5.547,-0.336,3111
5.548,-0.323,3103
5.549,-0.294,3103
5.550,-0.266,3103
5.551,-0.234,3103
5.552,-0.206,3103
5.553,-0.175,3103
5.554,-0.152,3103
5.555,-0.136,3103
5.556,-0.129,3103
5.557,-0.130,3103
5.558,-0.147,3095
5.559,-0.174,3095
5.560,-0.251,3095
5.561,-0.294,3095
5.562,-0.314,3095
5.563,-0.341,3095
5.564,-0.350,3095
5.565,-0.349,3095
5.566,-0.336,3095
5.567,-0.310,3087
5.568,-0.282,3087
5.569,-0.249,3087
5.570,-0.211,3087
5.571,-0.176,3087
5.572,-0.141,3087
5.573,-0.116,3087
5.574,-0.106,3087
5.575,-0.102,3087
5.576,-0.109,3087
5.577,-0.126,3109
5.578,-0.146,3109
5.579,-0.176,3109
5.580,-0.256,3109
5.581,-0.290,3109
5.582,-0.311,3109
5.583,-0.331,3109
5.584,-0.331,3109
5.585,-0.324,3109
5.586,-0.304,3101
5.587,-0.275,3101
5.588,-0.246,3101
5.589,-0.205,3101
5.590,-0.170,3101
5.591,-0.134,3101
5.592,-0.111,3101
5.593,-0.094,3101
5.594,-0.091,3101
5.595,-0.105,3101
5.596,-0.130,3103
5.597,-0.171,3103
5.598,-0.209,3103
5.599,-0.251,3103
5.600,-0.321,3103
5.601,-0.335,3103
5.602,-0.346,3103
5.603,-0.346,3103
5.604,-0.336,3103
5.605,-0.311,3113
5.606,-0.282,3113
5.607,-0.251,3113
5.608,-0.214,3113
5.609,-0.184,3113
5.610,-0.151,3113
5.611,-0.129,3113
5.612,-0.124,3113
5.613,-0.124,3113
5.614,-0.134,3113
5.615,-0.164,3097
5.616,-0.194,3097
5.617,-0.234,3097
5.618,-0.274,3097
5.619,-0.309,3097
5.620,-0.374,3097
5.621,-0.391,3097
5.622,-0.384,3097
5.623,-0.365,3094
5.624,-0.336,3094
5.625,-0.296,3094
5.626,-0.264,3094
5.627,-0.224,3094
5.628,-0.190,3094
5.629,-0.169,3094
5.630,-0.149,3094
5.631,-0.146,3094
5.632,-0.161,3094
5.633,-0.176,3099
5.634,-0.196,3099
5.635,-0.230,3099
5.636,-0.266,3099
5.637,-0.296,3099
5.638,-0.328,3099
5.639,-0.344,3099
5.640,-0.351,3099
5.641,-0.343,3099
5.642,-0.324,3121
5.643,-0.289,3121
5.644,-0.264,3121
5.645,-0.228,3121
5.646,-0.196,3121
5.647,-0.169,3121
5.648,-0.149,3121
5.649,-0.138,3121
5.650,-0.146,3121
5.651,-0.165,3121
5.652,-0.189,3107
5.653,-0.224,3107
5.654,-0.265,3107
5.655,-0.294,3107
5.656,-0.329,3107
5.657,-0.351,3107
5.658,-0.369,3107
5.659,-0.374,3107
5.660,-0.349,3107
5.661,-0.330,3120
5.662,-0.292,3120
5.663,-0.261,3120
5.664,-0.225,3120
5.665,-0.193,3120
5.666,-0.169,3120
5.667,-0.144,3120
5.668,-0.130,3120
5.669,-0.126,3120
5.670,-0.131,3120
5.671,-0.151,3098
5.672,-0.190,3098
5.673,-0.217,3098
5.674,-0.256,3098
5.675,-0.289,3098
5.676,-0.324,3098
5.677,-0.345,3098
5.678,-0.356,3098
5.679,-0.364,3098
5.680,-0.334,3128
5.681,-0.276,3128
5.682,-0.246,3128
5.683,-0.204,3128
5.684,-0.182,3128
5.685,-0.146,3128
5.686,-0.134,3128
5.687,-0.171,3071
5.688,-0.196,3071
5.689,-0.231,3071
5.690,-0.269,3071
5.691,-0.297,3071
5.692,-0.326,3071
5.693,-0.345,3071
5.694,-0.351,3071
5.695,-0.349,3071
5.696,-0.341,3071
5.697,-0.326,3105
5.698,-0.295,3105
5.699,-0.264,3105
5.700,-0.191,3105
5.701,-0.170,3105
5.702,-0.142,3105
5.703,-0.128,3105
5.704,-0.124,3105
5.705,-0.129,3105
5.706,-0.144,3112
5.707,-0.169,3112
5.708,-0.194,3112
5.709,-0.219,3112
5.710,-0.254,3112
5.711,-0.282,3112
5.712,-0.306,3112
5.713,-0.325,3112
5.714,-0.331,3112
5.715,-0.324,3112
5.716,-0.306,3131
5.717,-0.284,3131
5.718,-0.261,3131
5.719,-0.224,3131
5.720,-0.161,3131
5.721,-0.146,3131
5.722,-0.133,3131
5.723,-0.134,3131
5.724,-0.146,3131
5.725,-0.171,3135
5.726,-0.201,3135
5.727,-0.233,3135
5.728,-0.270,3135
5.729,-0.301,3135
5.730,-0.326,3135
5.731,-0.336,3135
5.732,-0.340,3135
5.733,-0.328,3135
5.734,-0.296,3135
5.735,-0.264,3098
5.736,-0.224,3098
5.737,-0.184,3098
5.738,-0.144,3098
5.739,-0.109,3098
5.740,-0.046,3098
5.741,-0.037,3098
5.742,-0.036,3098
5.743,-0.045,3098
5.744,-0.016,3115
5.745,-0.094,3115
5.746,-0.124,3115
5.747,-0.161,3115
5.748,-0.199,3115
5.749,-0.234,3115
5.750,-0.266,3115
5.751,-0.286,3115
5.752,-0.296,3115
5.753,-0.296,3115
5.754,-0.289,3124
5.755,-0.271,3124
5.756,-0.250,3124
5.757,-0.214,3124
5.758,-0.182,3124
5.759,-0.145,3124
5.760,-0.090,3124
5.761,-0.081,3124
5.762,-0.070,3124
5.763,-0.072,3108
5.764,-0.091,3108
5.765,-0.111,3108
5.766,-0.126,3108
5.767,-0.154,3108
5.768,-0.181,3108
5.769,-0.189,3108
5.770,-0.191,3108
5.771,-0.191,3108
5.772,-0.181,3108
5.773,-0.151,3115
5.774,-0.129,3115
5.775,-0.102,3115
5.776,-0.064,3115
5.777,-0.036,3115
5.778,-0.014,3115
5.779,0.007,3115
5.780,-0.004,3115
5.781,-0.016,3115
5.782,-0.049,3115
5.783,-0.089,3081
5.784,-0.135,3081
5.785,-0.184,3081
5.786,-0.224,3081
5.787,-0.266,3081
5.788,-0.296,3081
5.789,-0.321,3081
5.790,-0.330,3081
5.791,-0.326,3081
5.792,-0.310,3081
5.793,-0.294,3099
5.794,-0.270,3099
5.795,-0.246,3099
5.796,-0.214,3099
5.797,-0.191,3099
5.798,-0.171,3099
5.799,-0.154,3099
5.800,-0.163,3099
5.801,-0.174,3099
5.802,-0.196,3073
5.803,-0.229,3073
5.804,-0.266,3073
5.805,-0.302,3073
5.806,-0.331,3073
5.807,-0.354,3073
5.808,-0.369,3073
5.809,-0.369,3073
5.810,-0.362,3073
5.811,-0.341,3073
5.812,-0.310,3114
5.813,-0.276,3114
5.814,-0.241,3114
5.815,-0.206,3114
5.816,-0.175,3114
5.817,-0.150,3114
5.818,-0.134,3114
5.819,-0.134,3114
5.820,-0.184,3093
5.821,-0.251,3093
5.822,-0.291,3093
5.823,-0.328,3093
5.824,-0.355,3093
5.825,-0.374,3093
5.826,-0.385,3093
5.827,-0.381,3093
5.828,-0.370,3093
5.829,-0.347,3093
5.830,-0.321,3116
5.831,-0.281,3116
5.832,-0.246,3116
5.833,-0.211,3116
5.834,-0.189,3116
5.835,-0.165,3116
5.836,-0.146,3116
5.837,-0.136,3116
5.838,-0.144,3116
5.839,-0.165,3116
5.840,-0.231,3095
5.841,-0.289,3095
5.842,-0.310,3095
5.843,-0.330,3095
5.844,-0.341,3095
5.845,-0.336,3095
5.846,-0.331,3095
5.847,-0.307,3095
5.848,-0.276,3103
5.849,-0.242,3103
5.850,-0.204,3103
5.851,-0.172,3103
5.852,-0.146,3103
5.853,-0.130,3103
5.854,-0.125,3103
5.855,-0.126,3103
5.856,-0.136,3103
5.857,-0.166,3103
5.858,-0.195,3093
5.859,-0.230,3093
5.860,-0.294,3093
5.861,-0.321,3093
5.862,-0.331,3093
5.863,-0.341,3093
5.864,-0.335,3093
5.865,-0.312,3093
5.866,-0.290,3093
5.867,-0.256,3082
5.868,-0.212,3082
5.869,-0.175,3082
5.870,-0.142,3082
5.871,-0.122,3082
5.872,-0.114,3082
5.873,-0.121,3082
5.874,-0.136,3082
5.875,-0.169,3082
5.876,-0.207,3082
5.877,-0.253,3108
5.878,-0.302,3108
5.879,-0.350,3108
5.880,-0.436,3108
5.881,-0.445,3108
5.882,-0.451,3108
5.883,-0.449,3108
5.884,-0.430,3108
5.885,-0.406,3108
5.886,-0.366,3113
5.887,-0.321,3113
5.888,-0.260,3113
5.889,-0.189,3113
5.890,-0.124,3113
5.891,-0.055,3113
5.892,0.024,3113
5.893,0.098,3113
5.894,0.176,3113
5.895,0.259,3113
5.896,0.344,3120
5.897,0.426,3120
5.898,0.511,3120
5.899,0.604,3120
5.900,0.844,3120
5.901,0.954,3120
5.902,1.110,3120
5.903,1.289,3120
5.904,1.489,3120
5.905,1.714,3119
5.906,1.965,3119
5.907,2.188,3119
5.908,2.384,3119
5.909,2.516,3119
5.910,2.559,3119
5.911,2.555,3119
5.912,2.478,3119
5.913,2.345,3119
5.914,2.156,3119
5.915,1.949,3106
5.916,1.711,3106
5.917,1.474,3106
5.918,1.238,3106
5.919,1.016,3106
5.920,0.575,3106
5.921,0.426,3106
5.922,0.274,3106
5.923,0.144,3106
5.924,0.030,3130
5.925,-0.059,3130
5.926,-0.129,3130
5.927,-0.184,3130
5.928,-0.226,3130
5.929,-0.269,3130
5.930,-0.310,3130
5.931,-0.364,3130
5.932,-0.406,3130
5.933,-0.451,3130
5.934,-0.501,3133
5.935,-0.549,3133
5.936,-0.596,3133
5.937,-0.645,3133
5.938,-0.671,3133
5.939,-0.688,3133
5.940,-0.675,3133
5.941,-0.654,3133
5.942,-0.610,3133
5.943,-0.575,3107
5.944,-0.524,3107
5.945,-0.471,3107
5.946,-0.421,3107
5.947,-0.379,3107
5.948,-0.349,3107
5.949,-0.329,3107
5.950,-0.312,3107
5.951,-0.311,3107
5.952,-0.325,3107
5.953,-0.341,3115
5.954,-0.366,3115
5.955,-0.389,3115
5.956,-0.420,3115
5.957,-0.449,3115
5.958,-0.465,3115
5.959,-0.484,3115
5.960,-0.491,3115
5.961,-0.466,3115
5.962,-0.411,3127
5.963,-0.421,3127
5.964,-0.389,3127
5.965,-0.364,3127
5.966,-0.336,3127
5.967,-0.312,3127
5.968,-0.305,3127
5.969,-0.296,3127
5.970,-0.306,3127
5.971,-0.326,3127
5.972,-0.355,3122
5.973,-0.389,3122
5.974,-0.431,3122
5.975,-0.465,3122
5.976,-0.491,3122
5.977,-0.509,3122
5.978,-0.514,3122
5.979,-0.511,3122
5.980,-0.456,3122
5.981,-0.431,3128
5.982,-0.366,3128
5.983,-0.340,3128
5.984,-0.307,3128
5.985,-0.287,3128
5.986,-0.281,3128
5.987,-0.281,3128
5.988,-0.284,3128
5.989,-0.301,3128
5.990,-0.320,3103
5.991,-0.344,3103
5.992,-0.367,3103
5.993,-0.390,3103
5.994,-0.412,3103
5.995,-0.424,3103
5.996,-0.424,3103
5.997,-0.421,3103
5.998,-0.406,3103
5.999,-0.385,3103
6.000,-0.325,3054
6.001,-0.266,3054
6.002,-0.229,3054
6.003,-0.214,3054
6.004,-0.196,3054
6.005,-0.191,3054
6.006,-0.204,3054
6.007,-0.221,3054
6.008,-0.255,3116
6.009,-0.329,3116
6.010,-0.356,3116
6.011,-0.378,3116
6.012,-0.404,3116
6.013,-0.410,3116
6.014,-0.406,3116
6.015,-0.390,3116
6.016,-0.366,3116
6.017,-0.335,3107
6.018,-0.294,3107
6.019,-0.264,3107
6.020,-0.190,3107
6.021,-0.174,3107
6.022,-0.171,3107
6.023,-0.161,3107
6.024,-0.163,3107
6.025,-0.170,3107
6.026,-0.189,3099
6.027,-0.216,3099
6.028,-0.261,3099
6.029,-0.297,3099
6.030,-0.334,3099
6.031,-0.356,3099
6.032,-0.370,3099
6.033,-0.370,3099
6.034,-0.361,3099
6.035,-0.341,3099
6.036,-0.321,3099
6.037,-0.291,3098
6.038,-0.261,3098
6.039,-0.230,3098
6.040,-0.195,3098
6.041,-0.189,3098
6.042,-0.190,3098
6.043,-0.191,3098
6.044,-0.206,3098
6.045,-0.225,3098
6.046,-0.251,3115
6.047,-0.284,3115
6.048,-0.310,3115
6.049,-0.334,3115
6.050,-0.350,3115
6.051,-0.351,3115
6.052,-0.341,3115
6.053,-0.324,3115
6.054,-0.292,3115
6.055,-0.264,3115
6.056,-0.223,3116
6.057,-0.186,3116
6.058,-0.145,3116
6.059,-0.111,3116
6.060,-0.074,3116
6.061,-0.071,3116
6.062,-0.084,3116
6.063,-0.101,3116
6.064,-0.128,3116
6.065,-0.165,3107
6.066,-0.196,3107
6.067,-0.229,3107
6.068,-0.254,3107
6.069,-0.271,3107
6.070,-0.281,3107
6.071,-0.280,3107
6.072,-0.265,3107
6.073,-0.245,3107
6.074,-0.211,3107
6.075,-0.174,3095
6.076,-0.135,3095
6.077,-0.105,3095
6.078,-0.071,3095
6.079,-0.049,3095
6.080,-0.029,3095
6.081,-0.036,3095
6.082,-0.050,3095
6.083,-0.072,3095
6.084,-0.109,3098
6.085,-0.136,3098
6.086,-0.169,3098
6.087,-0.189,3098
6.088,-0.205,3098
6.089,-0.205,3098
6.090,-0.196,3098
6.091,-0.184,3098
6.092,-0.154,3098
6.093,-0.128,3098
6.094,-0.090,3095
6.095,-0.051,3095
6.096,-0.020,3095
6.097,0.014,3095
6.098,0.021,3095
6.099,0.025,3095
6.100,-0.014,3095
6.101,-0.036,3095
6.102,-0.066,3095
6.103,-0.106,3093
6.104,-0.141,3093
6.105,-0.174,3093
6.106,-0.212,3093
6.107,-0.225,3093
6.108,-0.228,3093
6.109,-0.226,3093
6.110,-0.209,3093
6.111,-0.182,3093
6.112,-0.149,3093
6.113,-0.115,3115
6.114,-0.084,3115
6.115,-0.044,3115
6.116,-0.014,3115
6.117,0.019,3115
6.118,0.031,3115
6.119,0.031,3115
6.120,-0.005,3115
6.121,-0.034,3115
6.122,-0.066,3121
6.123,-0.109,3121
6.124,-0.149,3121
6.125,-0.176,3121
6.126,-0.194,3121
6.127,-0.204,3121
6.128,-0.204,3121
6.129,-0.184,3121
6.130,-0.168,3121
6.131,-0.130,3121
6.132,-0.094,3093
6.133,-0.056,3093
6.134,-0.025,3093
6.135,0.014,3093
6.136,0.036,3093
6.137,0.054,3093
6.138,0.058,3093
6.139,0.051,3093
6.140,-0.004,3093
6.141,-0.030,3115
6.142,-0.070,3115
6.143,-0.113,3115
6.144,-0.149,3115
6.145,-0.184,3115
6.146,-0.201,3115
6.147,-0.206,3115
6.148,-0.195,3115
6.149,-0.176,3115
6.150,-0.144,3115
6.151,-0.115,3083
6.152,-0.085,3083
6.153,-0.054,3083
6.154,-0.034,3083
6.155,-0.016,3083
6.156,-0.011,3083
6.157,-0.020,3083
6.158,-0.036,3083
6.159,-0.066,3083
6.160,-0.141,3122
6.161,-0.214,3122
6.162,-0.245,3122
6.163,-0.264,3122
6.164,-0.274,3122
6.165,-0.274,3122
6.166,-0.266,3122
6.167,-0.254,3122
6.168,-0.233,3122
6.169,-0.214,3118
6.170,-0.190,3118
6.171,-0.171,3118
6.172,-0.151,3118
6.173,-0.144,3118
6.174,-0.144,3118
6.175,-0.147,3118
6.176,-0.166,3118
6.177,-0.181,3118
6.178,-0.205,3118
6.179,-0.233,3123
6.180,-0.311,3123
6.181,-0.341,3123
6.182,-0.369,3123
6.183,-0.386,3123
6.184,-0.400,3123
6.185,-0.391,3123
6.186,-0.376,3123
6.187,-0.356,3123
6.188,-0.331,3119
6.189,-0.301,3119
6.190,-0.270,3119
6.191,-0.246,3119
6.192,-0.216,3119
6.193,-0.209,3119
6.194,-0.209,3119
6.195,-0.221,3119
6.196,-0.246,3119
6.197,-0.273,3119
6.198,-0.309,3119
6.199,-0.350,3119
6.200,-0.421,3119
6.201,-0.436,3119
6.202,-0.449,3119
6.203,-0.449,3119
6.204,-0.435,3119
6.205,-0.415,3119
6.206,-0.386,3119
6.207,-0.355,3113
6.208,-0.326,3113
6.209,-0.289,3113
6.210,-0.261,3113
6.211,-0.234,3113
6.212,-0.216,3113
6.213,-0.216,3113
6.214,-0.226,3113
6.215,-0.245,3113
6.216,-0.269,3113
6.217,-0.296,3129
6.218,-0.336,3129
6.219,-0.370,3129
6.220,-0.426,3129
6.221,-0.434,3129
6.222,-0.426,3129
6.223,-0.409,3129
6.224,-0.374,3129
6.225,-0.345,3121
6.226,-0.314,3121
6.227,-0.289,3121
6.228,-0.261,3121
6.229,-0.245,3121
6.230,-0.226,3121
6.231,-0.216,3121
6.232,-0.224,3121
6.233,-0.235,3121
6.234,-0.256,3121
6.235,-0.286,3134
6.236,-0.324,3134
6.237,-0.351,3134
6.238,-0.376,3134
6.239,-0.406,3134
6.240,-0.366,3134
6.241,-0.416,3134
6.242,-0.393,3134
6.243,-0.365,3134
6.244,-0.329,3122
6.245,-0.290,3122
6.246,-0.256,3122
6.247,-0.224,3122
6.248,-0.204,3122
6.249,-0.191,3122
6.250,-0.191,3122
6.251,-0.203,3122
6.252,-0.216,3122
6.253,-0.244,3122
6.254,-0.271,3078
6.255,-0.301,3078
6.256,-0.329,3078
6.257,-0.351,3078
6.258,-0.371,3078
6.259,-0.385,3078
6.260,-0.381,3078
6.261,-0.361,3078
6.262,-0.335,3078
6.263,-0.296,3118
6.264,-0.265,3118
6.265,-0.228,3118
6.266,-0.201,3118
6.267,-0.176,3118
6.268,-0.170,3118
6.269,-0.169,3118
6.270,-0.184,3118
6.271,-0.198,3118
6.272,-0.226,3118
6.273,-0.265,3125
6.274,-0.296,3125
6.275,-0.331,3125
6.276,-0.356,3125
6.277,-0.374,3125
6.278,-0.385,3125
6.279,-0.386,3125
6.280,-0.346,3125
6.281,-0.311,3125
6.282,-0.276,3114
6.283,-0.241,3114
6.284,-0.201,3114
6.285,-0.171,3114
6.286,-0.149,3114
6.287,-0.136,3114
6.288,-0.136,3114
6.289,-0.144,3114
6.290,-0.164,3114
6.291,-0.188,3114
6.292,-0.224,3114
6.293,-0.256,3111
6.294,-0.290,3111
6.295,-0.314,3111
6.296,-0.331,3111
6.297,-0.344,3111
6.298,-0.336,3111
6.299,-0.329,3111
6.300,-0.270,3111
6.301,-0.246,3111
6.302,-0.207,3112
6.303,-0.174,3112
6.304,-0.161,3112
6.305,-0.130,3112
6.306,-0.122,3112
6.307,-0.124,3112
6.308,-0.136,3112
6.309,-0.165,3112
6.310,-0.194,3112
6.311,-0.231,3112
6.312,-0.269,3120
6.313,-0.296,3120
6.314,-0.324,3120
6.315,-0.335,3120
6.316,-0.336,3120
6.317,-0.326,3120
6.318,-0.304,3120
6.319,-0.276,3120
6.320,-0.201,3099
6.321,-0.164,3099
6.322,-0.141,3099
6.323,-0.135,3099
6.324,-0.144,3099
6.325,-0.151,3099
6.326,-0.164,3099
6.327,-0.181,3099
6.328,-0.204,3099
6.329,-0.228,3099
6.330,-0.261,3113
6.331,-0.290,3113
6.332,-0.312,3113
6.333,-0.341,3113
6.334,-0.354,3113
6.335,-0.356,3113
6.336,-0.349,3113
6.337,-0.329,3113
6.338,-0.302,3113
6.339,-0.270,3113
6.340,-0.194,3117
6.341,-0.142,3117
6.342,-0.130,3117
6.343,-0.130,3117
6.344,-0.141,3117
6.345,-0.168,3117
6.346,-0.194,3117
6.347,-0.229,3117
6.348,-0.270,3102
6.349,-0.301,3102
6.350,-0.330,3102
6.351,-0.346,3102
6.352,-0.351,3102
6.353,-0.345,3102
6.354,-0.329,3102
6.355,-0.299,3102
6.356,-0.266,3102
6.357,-0.224,3102
6.358,-0.185,3102
6.359,-0.146,3102
6.360,-0.096,3102
6.361,-0.094,3102
6.362,-0.101,3102
6.363,-0.121,3102
6.364,-0.181,3102
6.365,-0.191,3102
6.366,-0.226,3102
6.367,-0.266,3101
6.368,-0.299,3101
6.369,-0.331,3101
6.370,-0.349,3101
6.371,-0.352,3101
6.372,-0.350,3101
6.373,-0.335,3101
6.374,-0.304,3101
6.375,-0.269,3101
6.376,-0.229,3101
6.377,-0.196,3098
6.378,-0.165,3098
6.379,-0.134,3098
6.380,-0.121,3098
6.381,-0.129,3098
6.382,-0.147,3098
6.383,-0.175,3098
6.384,-0.206,3098
6.385,-0.242,3098
6.386,-0.276,3120
6.387,-0.306,3120
6.388,-0.334,3120
6.389,-0.354,3120
6.390,-0.366,3120
6.391,-0.370,3120
6.392,-0.365,3120
6.393,-0.346,3120
6.394,-0.311,3120
6.395,-0.281,3120
6.396,-0.244,3105
6.397,-0.210,3105
6.398,-0.185,3105
6.399,-0.171,3105
6.400,-0.166,3105
6.401,-0.181,3105
6.402,-0.201,3105
6.403,-0.226,3105
6.404,-0.266,3105
6.405,-0.301,3123
6.406,-0.341,3123
6.407,-0.366,3123
6.408,-0.386,3123
6.409,-0.391,3123
6.410,-0.384,3123
6.411,-0.356,3123
6.412,-0.331,3123
6.413,-0.294,3123
6.414,-0.263,3123
6.415,-0.223,3131
6.416,-0.185,3131
6.417,-0.151,3131
6.418,-0.134,3131
6.419,-0.128,3131
6.420,-0.149,3131
6.421,-0.181,3131
6.422,-0.210,3131
6.423,-0.249,3131
6.424,-0.281,3126
6.425,-0.314,3126
6.426,-0.344,3126
6.427,-0.365,3126
6.428,-0.429,3126
6.429,-0.384,3126
6.430,-0.375,3126
6.431,-0.354,3126
6.432,-0.325,3126
6.433,-0.289,3126
6.434,-0.255,3112
6.435,-0.217,3112
6.436,-0.190,3112
6.437,-0.166,3112
6.438,-0.150,3112
6.439,-0.146,3112
6.440,-0.186,3112
6.441,-0.207,3112
6.442,-0.241,3112
6.443,-0.266,3132
6.444,-0.294,3132
6.445,-0.311,3132
6.446,-0.325,3132
6.447,-0.325,3132
6.448,-0.314,3132
6.449,-0.301,3132
6.450,-0.281,3132
6.451,-0.251,3132
6.452,-0.216,3132
6.453,-0.186,3110
6.454,-0.152,3110
6.455,-0.129,3110
6.456,-0.115,3110
6.457,-0.109,3110
6.458,-0.121,3110
6.459,-0.133,3110
6.460,-0.191,3110
6.461,-0.226,3110
6.462,-0.261,3119
6.463,-0.289,3119
6.464,-0.311,3119
6.465,-0.334,3119
6.466,-0.345,3119
6.467,-0.351,3119
6.468,-0.344,3119
6.469,-0.329,3119
6.470,-0.299,3119
6.471,-0.274,3119
6.472,-0.241,3113
6.473,-0.209,3113
6.474,-0.184,3113
6.475,-0.171,3113
6.476,-0.165,3113
6.477,-0.168,3113
6.478,-0.181,3113
6.479,-0.203,3113
6.480,-0.265,3113
6.481,-0.286,3112
6.482,-0.321,3112
6.483,-0.336,3112
6.484,-0.349,3112
6.485,-0.350,3112
6.486,-0.341,3112
6.487,-0.311,3112
6.488,-0.281,3112
6.489,-0.244,3112
6.490,-0.196,3112
6.491,-0.163,3118
6.492,-0.131,3118
6.493,-0.110,3118
6.494,-0.101,3118
6.495,-0.104,3118
6.496,-0.116,3118
6.497,-0.145,3118
6.498,-0.181,3118
6.499,-0.216,3118
6.500,-0.291,3115
6.501,-0.349,3115
6.502,-0.366,3115
6.503,-0.367,3115
6.504,-0.356,3115
6.505,-0.341,3115
6.506,-0.311,3115
6.507,-0.282,3115
6.508,-0.241,3115
6.509,-0.205,3116
6.510,-0.171,3116
6.511,-0.136,3116
6.512,-0.116,3116
6.513,-0.110,3116
6.514,-0.107,3116
6.515,-0.122,3116
6.516,-0.142,3116
6.517,-0.176,3116
6.518,-0.210,3116
6.519,-0.254,3098
6.520,-0.324,3098
6.521,-0.334,3098
6.522,-0.349,3098
6.523,-0.346,3098
6.524,-0.331,3098
6.525,-0.306,3098
6.526,-0.274,3098
6.527,-0.244,3098
6.528,-0.206,3106
6.529,-0.181,3106
6.530,-0.149,3106
6.531,-0.129,3106
6.532,-0.116,3106
6.533,-0.116,3106
6.534,-0.124,3106
6.535,-0.141,3106
6.536,-0.168,3106
6.537,-0.198,3106
6.538,-0.229,3112
6.539,-0.265,3112
6.540,-0.304,3112
6.541,-0.304,3112
6.542,-0.301,3112
6.543,-0.286,3112
6.544,-0.265,3112
6.545,-0.234,3112
6.546,-0.203,3112
6.547,-0.170,3112
6.548,-0.134,3084
6.549,-0.106,3084
6.550,-0.081,3084
6.551,-0.066,3084
6.552,-0.059,3084
6.553,-0.071,3084
6.554,-0.085,3084
6.555,-0.105,3084
6.556,-0.126,3084
6.557,-0.151,3084
6.558,-0.174,3106
6.559,-0.195,3106
6.560,-0.209,3106
6.561,-0.205,3106
6.562,-0.191,3106
6.563,-0.171,3106
6.564,-0.149,3106
6.565,-0.129,3106
6.566,-0.106,3106
6.567,-0.084,3107
6.568,-0.065,3107
6.569,-0.051,3107
6.570,-0.049,3107
6.571,-0.046,3107
6.572,-0.052,3107
6.573,-0.074,3107
6.574,-0.096,3107
6.575,-0.126,3107
6.576,-0.161,3107
6.577,-0.185,3086
6.578,-0.204,3086
6.579,-0.214,3086
6.580,-0.196,3086
6.581,-0.185,3086
6.582,-0.163,3086
6.583,-0.124,3086
6.584,-0.092,3086
6.585,-0.054,3086
6.586,-0.024,3103
6.587,0.014,3103
6.588,0.031,3103
6.589,0.036,3103
6.590,0.031,3103
6.591,0.006,3103
6.592,-0.031,3103
6.593,-0.069,3103
6.594,-0.111,3103
6.595,-0.151,3103
6.596,-0.190,3106
6.597,-0.224,3106
6.598,-0.246,3106
6.599,-0.264,3106
6.600,-0.256,3106
6.601,-0.244,3106
6.602,-0.226,3106
6.603,-0.204,3106
6.604,-0.176,3106
6.605,-0.151,3105
6.606,-0.134,3105
6.607,-0.121,3105
6.608,-0.121,3105
6.609,-0.126,3105
6.610,-0.139,3105
6.611,-0.166,3105
6.612,-0.191,3105
6.613,-0.219,3105
6.614,-0.250,3105
6.615,-0.270,3092
6.616,-0.320,3092
6.617,-0.302,3092
6.618,-0.306,3092
6.619,-0.306,3092
6.620,-0.271,3092
6.621,-0.229,3092
6.622,-0.193,3092
6.623,-0.169,3109
6.624,-0.141,3109
6.625,-0.129,3109
6.626,-0.124,3109
6.627,-0.134,3109
6.628,-0.150,3109
6.629,-0.177,3109
6.630,-0.209,3109
6.631,-0.246,3109
6.632,-0.275,3109
6.633,-0.301,3110
6.634,-0.323,3110
6.635,-0.330,3110
6.636,-0.330,3110
6.637,-0.323,3110
6.638,-0.302,3110
6.639,-0.281,3110
6.640,-0.221,3110
6.641,-0.196,3110
6.642,-0.176,3085
6.643,-0.151,3085
6.644,-0.144,3085
6.645,-0.138,3085
6.646,-0.152,3085
6.647,-0.174,3085
6.648,-0.211,3085
6.649,-0.254,3085
6.650,-0.281,3110
6.651,-0.297,3110
6.652,-0.311,3110
6.653,-0.321,3110
6.654,-0.311,3110
6.655,-0.302,3110
6.656,-0.284,3110
6.657,-0.261,3110
6.658,-0.231,3110
6.659,-0.211,3110
6.660,-0.168,3121
6.661,-0.149,3121
6.662,-0.149,3121
6.663,-0.166,3121
6.664,-0.182,3121
6.665,-0.206,3121
6.666,-0.230,3121
6.667,-0.261,3121
6.668,-0.281,3116
6.669,-0.301,3116
6.670,-0.314,3116
6.671,-0.320,3116
6.672,-0.309,3116
6.673,-0.296,3116
6.674,-0.276,3116
6.675,-0.255,3116
6.676,-0.224,3116
6.677,-0.201,3116
6.678,-0.174,3115
6.679,-0.149,3115
6.680,-0.131,3115
6.681,-0.141,3115
6.682,-0.154,3115
6.683,-0.188,3115
6.684,-0.224,3115
6.685,-0.268,3115
