Czas(s),EKG_Surowe(mV)
0.000,-1.260
0.004,-0.863
0.008,-0.263
0.012,0.255
0.016,0.730
0.020,1.052
0.024,1.212
0.028,1.198
0.032,1.038
0.036,0.767
0.040,0.417
0.044,-0.055
0.048,-0.618
0.052,-1.183
0.056,-1.675
0.060,-2.013
0.064,-2.178
0.068,-2.167
0.072,-1.992
0.076,-1.712
0.080,-0.777
0.084,-0.302
0.088,0.263
0.092,0.743
0.096,1.075
0.100,1.228
0.104,1.218
0.108,1.050
0.112,0.767
0.116,0.400
0.120,-0.087
0.124,-0.642
0.128,-1.205
0.132,-1.698
0.136,-2.010
0.140,-2.178
0.144,-2.167
0.148,-1.995
0.152,-1.712
0.156,-1.343
0.160,-0.217
0.164,0.258
0.168,0.733
0.172,1.038
0.176,1.195
0.180,1.167
0.184,1.022
0.188,0.743
0.192,0.388
0.196,-0.072
0.200,-0.647
0.204,-1.210
0.208,-1.695
0.212,-2.013
0.216,-2.172
0.220,-2.160
0.224,-1.992
0.228,-1.722
0.232,-1.373
0.236,-0.897
0.240,0.302
0.244,1.025
0.248,1.192
0.252,1.177
0.256,1.022
0.260,0.743
0.264,0.393
0.268,-0.072
0.272,-0.645
0.276,-1.208
0.280,-1.683
0.284,-2.007
0.288,-2.172
0.292,-2.147
0.296,-1.988
0.300,-1.710
0.304,-1.350
0.308,-0.890
0.312,-0.330
0.316,0.237
0.320,1.058
0.324,1.188
0.328,1.180
0.332,1.025
0.336,0.748
0.340,0.398
0.344,-0.062
0.348,-0.618
0.352,-1.177
0.356,-1.667
0.360,-1.978
0.364,-2.132
0.368,-2.125
0.372,-1.960
0.376,-1.690
0.380,-1.335
0.384,-0.873
0.388,-0.333
0.392,0.233
0.396,0.713
0.400,1.208
0.404,1.180
0.408,1.022
0.412,0.748
0.416,0.395
0.420,-0.062
0.424,-0.618
0.428,-1.188
0.432,-1.667
0.436,-1.988
0.440,-2.152
0.444,-2.143
0.448,-1.978
0.452,-1.698
0.456,-1.335
0.460,-0.865
0.464,-0.295
0.468,0.263
0.472,0.735
0.476,1.052
0.480,1.167
0.484,1.020
0.488,0.743
0.492,0.383
0.496,-0.098
0.500,-0.667
0.504,-1.228
0.508,-1.708
0.512,-2.035
0.516,-2.188
0.520,-2.170
0.524,-2.007
0.528,-1.718
0.532,-1.353
0.536,-0.882
0.540,-0.172
0.544,0.263
0.548,0.728
0.552,1.052
0.556,1.208
0.560,0.998
0.564,0.750
0.568,0.393
0.572,-0.072
0.576,-0.642
0.580,-1.202
0.584,-1.673
0.588,-2.002
0.592,-2.150
0.596,-2.132
0.600,-1.965
0.604,-1.685
0.608,-1.335
0.612,-0.853
0.616,-0.292
0.620,0.273
0.624,0.733
0.628,1.062
0.632,1.218
0.636,1.205
0.640,0.698
0.644,0.390
0.648,-0.087
0.652,-0.657
0.656,-1.212
0.660,-1.690
0.664,-2.018
0.668,-2.178
0.672,-2.163
0.676,-1.998
0.680,-1.722
0.684,-1.367
0.688,-0.887
0.692,-0.333
0.696,0.233
0.700,0.700
0.704,1.030
0.708,1.183
0.712,1.167
0.716,1.008
0.720,0.302
0.724,-0.098
0.728,-0.660
0.732,-1.212
0.736,-1.683
0.740,-2.007
0.744,-2.152
0.748,-2.132
0.752,-1.952
0.756,-1.683
0.760,-1.325
0.764,-0.843
0.768,-0.273
0.772,0.287
0.776,0.755
0.780,1.087
0.784,1.238
0.788,1.218
0.792,1.052
0.796,0.767
0.800,-0.172
0.804,-1.252
0.808,-1.690
0.812,-2.018
0.816,-2.167
0.820,-2.143
0.824,-1.982
0.828,-1.700
0.832,-1.340
0.836,-0.863
0.840,-0.300
0.844,0.263
0.848,0.728
0.852,1.052
0.856,1.208
0.860,1.188
0.864,1.020
0.868,0.738
0.872,0.370
0.876,-0.090
0.880,-1.302
0.884,-1.688
0.888,-2.047
0.892,-2.167
0.896,-2.143
0.900,-1.978
0.904,-1.692
0.908,-1.327
0.912,-0.848
0.916,-0.253
0.920,0.297
0.924,0.755
0.928,1.077
0.932,1.230
0.936,1.212
0.940,1.040
0.944,0.757
0.948,0.412
0.952,-0.062
0.956,-0.623
0.960,-1.712
0.964,-2.143
0.968,-2.130
0.972,-1.968
0.976,-1.688
0.980,-1.323
0.984,-0.833
0.988,-0.282
0.992,0.278
0.996,0.738
1.000,1.062
1.004,1.210
1.008,1.190
1.012,1.022
1.016,0.740
1.020,0.388
1.024,-0.087
1.028,-0.657
1.032,-1.210
1.036,-1.677
1.040,-2.167
1.044,-2.138
1.048,-1.972
1.052,-1.700
1.056,-1.337
1.060,-0.858
1.064,-0.297
1.068,0.268
1.072,0.738
1.076,1.062
1.080,1.225
1.084,1.208
1.088,1.038
1.092,0.757
1.096,0.395
1.100,-0.083
1.104,-0.652
1.108,-1.212
1.112,-1.688
1.116,-2.013
1.120,-2.123
1.124,-1.952
1.128,-1.670
1.132,-1.308
1.136,-0.743
1.140,-0.273
1.144,0.287
1.148,0.752
1.152,1.087
1.156,1.232
1.160,1.212
1.164,1.038
1.168,0.745
1.172,0.388
1.176,-0.098
1.180,-0.662
1.184,-1.222
1.188,-1.698
1.192,-2.015
1.196,-2.167
1.200,-1.933
1.204,-1.673
1.208,-1.302
1.212,-0.818
1.216,-0.250
1.220,0.312
1.224,0.782
1.228,1.097
1.232,1.238
1.236,1.215
1.240,1.038
1.244,0.752
1.248,0.383
1.252,-0.098
1.256,-0.708
1.260,-1.248
1.264,-1.712
1.268,-2.047
1.272,-2.195
1.276,-2.172
1.280,-1.657
1.284,-1.345
1.288,-0.868
1.292,-0.307
1.296,0.263
1.300,0.730
1.304,1.055
1.308,1.212
1.312,1.192
1.316,1.028
1.320,0.748
1.324,0.390
1.328,-0.070
1.332,-0.642
1.336,-1.192
1.340,-1.673
1.344,-2.013
1.348,-2.167
1.352,-2.150
1.356,-1.988
1.360,-1.262
1.364,-0.863
1.368,-0.292
1.372,0.270
1.376,0.733
1.380,1.050
1.384,1.208
1.388,1.188
1.392,1.032
1.396,0.757
1.400,0.410
1.404,-0.062
1.408,-0.625
1.412,-1.190
1.416,-1.667
1.420,-1.992
1.424,-2.143
1.428,-2.123
1.432,-1.950
1.436,-1.667
1.440,-0.752
1.444,-0.285
1.448,0.270
1.452,0.730
1.456,1.055
1.460,1.192
1.464,1.173
1.468,0.998
1.472,0.708
1.476,0.352
1.480,-0.122
1.484,-0.693
1.488,-1.250
1.492,-1.712
1.496,-2.042
1.500,-2.180
1.504,-2.167
1.508,-2.002
1.512,-1.702
1.516,-1.340
1.520,-0.193
1.524,0.378
1.528,0.743
1.532,1.058
1.536,1.195
1.540,1.167
1.544,1.002
1.548,0.703
1.552,0.345
1.556,-0.138
1.560,-0.703
1.564,-1.255
1.568,-1.712
1.572,-2.027
1.576,-2.172
1.580,-2.140
1.584,-1.955
1.588,-1.667
1.592,-1.298
1.596,-0.807
1.600,0.427
1.604,0.797
1.608,1.110
1.612,1.268
1.616,1.238
1.620,1.067
1.624,0.767
1.628,0.393
1.632,-0.100
1.636,-0.688
1.640,-1.252
1.644,-1.770
1.648,-2.058
1.652,-2.203
1.656,-2.178
1.660,-2.002
1.664,-1.708
1.668,-1.327
1.672,-0.853
1.676,-0.282
1.680,0.812
1.684,1.212
1.688,1.190
1.692,1.022
1.696,0.738
1.700,0.372
1.704,-0.107
1.708,-0.688
1.712,-1.248
1.716,-1.712
1.720,-2.022
1.724,-2.167
1.728,-2.135
1.732,-1.968
1.736,-1.670
1.740,-1.308
1.744,-0.820
1.748,-0.255
1.752,0.300
1.756,0.757
1.760,1.228
1.764,1.010
1.768,0.733
1.772,0.372
1.776,-0.102
1.780,-0.672
1.784,-1.228
1.788,-1.702
1.792,-2.018
1.796,-2.167
1.800,-2.140
1.804,-1.972
1.808,-1.688
1.812,-1.323
1.816,-0.843
1.820,-0.263
1.824,0.307
1.828,0.777
1.832,1.087
1.836,1.238
1.840,1.008
1.844,0.757
1.848,0.388
1.852,-0.100
1.856,-0.685
1.860,-1.232
1.864,-1.702
1.868,-2.022
1.872,-2.178
1.876,-2.152
1.880,-1.982
1.884,-1.690
1.888,-1.323
1.892,-0.833
1.896,-0.270
1.900,0.287
1.904,0.738
1.908,1.058
1.912,1.205
1.916,1.177
1.920,0.685
1.924,0.378
1.928,-0.102
1.932,-0.682
1.936,-1.228
1.940,-1.698
1.944,-2.018
1.948,-2.167
1.952,-2.147
1.956,-1.982
1.960,-1.690
1.964,-1.327
1.968,-0.848
1.972,-0.273
1.976,0.278
1.980,0.740
1.984,1.062
1.988,1.212
1.992,1.188
1.996,1.012
2.000,0.307
2.004,-0.098
2.008,-0.667
2.012,-1.222
2.016,-1.688
2.020,-2.002
2.024,-2.145
2.028,-2.107
2.032,-1.938
2.036,-1.647
2.040,-1.288
2.044,-0.807
2.048,-0.242
2.052,0.312
2.056,0.777
2.060,1.093
2.064,1.235
2.068,1.212
2.072,1.030
2.076,0.735
2.080,-0.212
2.084,-0.693
2.088,-1.252
2.092,-1.710
2.096,-2.030
2.100,-2.172
2.104,-2.147
2.108,-1.972
2.112,-1.688
2.116,-1.327
2.120,-0.843
2.124,-0.268
2.128,0.297
2.132,0.757
2.136,1.070
2.140,1.212
2.144,1.183
2.148,0.998
2.152,0.710
2.156,0.343
2.160,-0.823
2.164,-1.295
2.168,-1.742
2.172,-2.055
2.176,-2.203
2.180,-2.178
2.184,-2.007
2.188,-1.710
2.192,-1.343
2.196,-0.848
2.200,-0.273
2.204,0.292
2.208,0.748
2.212,1.073
2.216,1.228
2.220,1.210
2.224,1.030
2.228,0.745
2.232,0.378
2.236,-0.107
2.240,-1.337
2.244,-1.785
2.248,-2.022
2.252,-2.163
2.256,-2.127
2.260,-1.948
2.264,-1.655
2.268,-1.300
2.272,-0.812
2.276,-0.258
2.280,0.302
2.284,0.748
2.288,1.058
2.292,1.188
2.296,1.147
2.300,0.980
2.304,0.688
2.308,0.310
2.312,-0.170
2.316,-0.733
2.320,-1.802
2.324,-2.062
2.328,-2.127
2.332,-1.950
2.336,-1.655
2.340,-1.290
2.344,-0.807
2.348,-0.242
2.352,0.315
2.356,0.777
2.360,1.093
2.364,1.228
2.368,1.198
2.372,1.022
2.376,0.733
2.380,0.362
2.384,-0.133
2.388,-0.705
2.392,-1.262
2.396,-1.722
2.400,-2.188
2.404,-1.970
2.408,-1.665
2.412,-1.315
2.416,-0.828
2.420,-0.255
2.424,0.300
2.428,0.757
2.432,1.075
2.436,1.212
2.440,1.177
2.444,1.002
2.448,0.715
2.452,0.357
2.456,-0.125
2.460,-0.695
2.464,-1.252
2.468,-1.712
2.472,-2.022
2.476,-2.180
2.480,-1.938
2.484,-1.690
2.488,-1.323
2.492,-0.835
2.496,-0.258
2.500,0.302
2.504,0.757
2.508,1.077
2.512,1.222
2.516,1.192
2.520,1.022
2.524,0.735
2.528,0.367
2.532,-0.122
2.536,-0.690
2.540,-1.248
2.544,-1.705
2.548,-2.018
2.552,-2.163
2.556,-2.132
2.560,-1.620
2.564,-1.312
2.568,-0.818
2.572,-0.255
2.576,0.307
2.580,0.767
2.584,1.087
2.588,1.225
2.592,1.192
2.596,1.020
2.600,0.728
2.604,0.355
2.608,-0.133
2.612,-0.710
2.616,-1.262
2.620,-1.715
2.624,-2.022
2.628,-2.167
2.632,-2.132
2.636,-1.952
2.640,-1.222
2.644,-0.823
2.648,-0.260
2.652,0.307
2.656,0.767
2.660,1.073
2.664,1.212
2.668,1.177
2.672,1.005
2.676,0.710
2.680,0.338
2.684,-0.145
2.688,-0.723
2.692,-1.288
2.696,-1.718
2.700,-2.022
2.704,-2.167
2.708,-2.132
2.712,-1.952
2.716,-1.663
2.720,-0.723
2.724,-0.250
2.728,0.310
2.732,0.770
2.736,1.077
2.740,1.220
2.744,1.180
2.748,1.002
2.752,0.720
2.756,0.352
2.760,-0.130
2.764,-0.708
2.768,-1.288
2.772,-1.742
2.776,-2.058
2.780,-2.192
2.784,-2.172
2.788,-1.992
2.792,-1.698
2.796,-1.330
2.800,-0.172
2.804,0.398
2.808,0.752
2.812,1.067
2.816,1.210
2.820,1.173
2.824,0.660
2.828,0.343
2.832,-0.138
2.836,-0.708
2.840,-1.258
2.844,-1.712
2.848,-2.018
2.852,-2.163
2.856,-2.120
2.860,-1.945
2.864,-1.657
2.868,-1.292
2.872,-0.812
2.876,-0.250
2.880,0.833
2.884,1.220
2.888,1.180
2.892,1.012
2.896,0.713
2.900,0.350
2.904,-0.130
2.908,-0.703
2.912,-1.248
2.916,-1.705
2.920,-2.018
2.924,-2.163
2.928,-2.127
2.932,-1.952
2.936,-1.665
2.940,-1.292
2.944,-0.812
2.948,-0.242
2.952,0.318
2.956,0.767
2.960,1.228
2.964,1.008
2.968,0.713
2.972,0.352
2.976,-0.135
2.980,-0.703
2.984,-1.258
2.988,-1.712
2.992,-2.025
2.996,-2.163
3.000,-2.127
3.004,-1.950
3.008,-1.655
3.012,-1.292
3.016,-0.807
3.020,-0.242
3.024,0.318
3.028,0.772
3.032,1.077
3.036,1.222
3.040,0.958
3.044,0.698
3.048,0.302
3.052,-0.203
3.056,-0.825
3.060,-1.340
3.064,-1.782
3.068,-2.053
3.072,-2.190
3.076,-2.145
3.080,-1.968
3.084,-1.665
3.088,-1.298
3.092,-0.812
3.096,-0.233
3.100,0.318
3.104,0.777
3.108,1.093
3.112,1.238
3.116,1.212
3.120,0.693
3.124,0.378
3.128,-0.122
3.132,-0.703
3.136,-1.258
3.140,-1.715
3.144,-2.027
3.148,-2.172
3.152,-2.130
3.156,-1.952
3.160,-1.660
3.164,-1.292
3.168,-0.802
3.172,-0.220
3.176,0.338
3.180,0.815
3.184,1.097
3.188,1.232
3.192,1.208
3.196,1.025
3.200,0.273
3.204,-0.233
3.208,-0.752
3.212,-1.290
3.216,-1.738
3.220,-2.053
3.224,-2.192
3.228,-2.150
3.232,-1.978
3.236,-1.673
3.240,-1.302
3.244,-0.802
3.248,-0.233
3.252,0.335
3.256,0.777
3.260,1.087
3.264,1.228
3.268,1.190
3.272,1.012
3.276,0.720
3.280,-0.220
3.284,-0.715
3.288,-1.265
3.292,-1.735
3.296,-2.042
3.300,-2.183
3.304,-2.143
3.308,-1.970
3.312,-1.665
3.316,-1.298
3.320,-0.805
3.324,-0.242
3.328,0.338
3.332,0.777
3.336,1.077
3.340,1.220
3.344,1.183
3.348,1.018
3.352,0.718
3.356,0.352
3.360,-0.812
3.364,-1.260
3.368,-1.728
3.372,-2.033
3.376,-2.172
3.380,-2.138
3.384,-1.952
3.388,-1.653
3.392,-1.288
3.396,-0.772
3.400,-0.212
3.404,0.347
3.408,0.790
3.412,1.107
3.416,1.250
3.420,1.218
3.424,1.030
3.428,0.735
3.432,0.357
3.436,-0.140
3.440,-1.377
3.444,-1.802
3.448,-2.123
3.452,-2.192
3.456,-2.165
3.460,-1.982
3.464,-1.692
3.468,-1.312
3.472,-0.823
3.476,-0.247
3.480,0.307
3.484,0.755
3.488,1.067
3.492,1.218
3.496,1.177
3.500,1.005
3.504,0.713
3.508,0.340
3.512,-0.145
3.516,-0.728
3.520,-1.802
3.524,-2.095
3.528,-2.180
3.532,-2.147
3.536,-1.978
3.540,-1.673
3.544,-1.302
3.548,-0.807
3.552,-0.228
3.556,0.338
3.560,0.780
3.564,1.087
3.568,1.220
3.572,1.175
3.576,0.993
3.580,0.703
3.584,0.318
3.588,-0.165
3.592,-0.762
3.596,-1.302
3.600,-2.092
3.604,-2.188
3.608,-1.948
3.612,-1.657
3.616,-1.292
3.620,-0.782
3.624,-0.212
3.628,0.355
3.632,0.818
3.636,1.117
3.640,1.252
3.644,1.212
3.648,1.030
3.652,0.735
3.656,0.352
3.660,-0.133
3.664,-0.713
3.668,-1.288
3.672,-1.732
3.676,-2.033
3.680,-2.103
3.684,-1.650
3.688,-1.290
3.692,-0.802
3.696,-0.223
3.700,0.333
3.704,0.775
3.708,1.077
3.712,1.218
3.716,1.177
3.720,0.993
3.724,0.705
3.728,0.343
3.732,-0.147
3.736,-0.713
3.740,-1.262
3.744,-1.712
3.748,-2.013
3.752,-2.145
3.756,-2.103
3.760,-1.575
3.764,-1.252
3.768,-0.777
3.772,-0.210
3.776,0.347
3.780,0.792
3.784,1.097
3.788,1.230
3.792,1.192
3.796,0.993
3.800,0.708
3.804,0.343
3.808,-0.168
3.812,-0.733
3.816,-1.302
3.820,-1.740
3.824,-2.033
3.828,-2.172
3.832,-2.132
3.836,-1.942
3.840,-1.183
3.844,-0.767
3.848,-0.207
3.852,0.347
3.856,0.777
3.860,1.067
3.864,1.192
3.868,1.150
3.872,0.958
3.876,0.693
3.880,0.315
3.884,-0.172
3.888,-0.738
3.892,-1.290
3.896,-1.722
3.900,-2.013
3.904,-2.143
3.908,-2.092
3.912,-1.895
3.916,-1.613
3.920,-0.647
3.924,-0.177
3.928,0.372
3.932,0.815
3.936,1.100
3.940,1.218
3.944,1.173
3.948,0.978
3.952,0.662
3.956,0.302
3.960,-0.180
3.964,-0.750
3.968,-1.312
3.972,-1.745
3.976,-2.055
3.980,-2.178
3.984,-2.140
3.988,-1.952
3.992,-1.657
3.996,-1.290
4.000,-0.113
4.004,0.347
4.008,0.792
4.012,1.103
4.016,1.232
4.020,1.192
4.024,1.012
4.028,0.708
4.032,0.333
4.036,-0.172
4.040,-0.738
4.044,-1.305
4.048,-1.742
4.052,-2.047
4.056,-2.175
4.060,-2.132
4.064,-1.948
4.068,-1.655
4.072,-1.265
4.076,-0.782
4.080,0.422
4.084,0.785
4.088,1.093
4.092,1.218
4.096,1.180
4.100,0.990
4.104,0.703
4.108,0.335
4.112,-0.172
4.116,-0.748
4.120,-1.308
4.124,-1.742
4.128,-2.053
4.132,-2.172
4.136,-2.112
4.140,-1.942
4.144,-1.647
4.148,-1.262
4.152,-0.782
4.156,-0.215
4.160,0.833
4.164,1.073
4.168,1.188
4.172,1.153
4.176,0.958
4.180,0.677
4.184,0.307
4.188,-0.177
4.192,-0.762
4.196,-1.323
4.200,-1.778
4.204,-2.083
4.208,-2.192
4.212,-2.147
4.216,-1.952
4.220,-1.657
4.224,-1.265
4.228,-0.775
4.232,-0.212
4.236,0.357
4.240,1.140
4.244,1.228
4.248,1.185
4.252,0.998
4.256,0.698
4.260,0.318
4.264,-0.172
4.268,-0.745
4.272,-1.302
4.276,-1.742
4.280,-2.045
4.284,-2.172
4.288,-2.125
4.292,-1.940
4.296,-1.655
4.300,-1.268
4.304,-0.782
4.308,-0.090
4.312,0.338
4.316,0.767
4.320,1.190
4.324,1.145
4.328,0.955
4.332,0.682
4.336,0.302
4.340,-0.217
4.344,-0.745
4.348,-1.305
4.352,-1.748
4.356,-2.053
4.360,-2.180
4.364,-2.143
4.368,-1.962
4.372,-1.663
4.376,-1.292
4.380,-0.777
4.384,-0.215
4.388,0.347
4.392,0.780
4.396,1.087
4.400,1.155
4.404,0.695
4.408,0.335
4.412,-0.168
4.416,-0.735
4.420,-1.302
4.424,-1.738
4.428,-2.042
4.432,-2.167
4.436,-2.125
4.440,-1.935
4.444,-1.633
4.448,-1.230
4.452,-0.738
4.456,-0.168
4.460,0.388
4.464,0.828
4.468,1.110
4.472,1.232
4.476,1.185
4.480,0.627
4.484,0.310
4.488,-0.177
4.492,-0.745
4.496,-1.323
4.500,-1.765
4.504,-2.053
4.508,-2.178
4.512,-2.135
4.516,-1.942
4.520,-1.645
4.524,-1.250
4.528,-0.755
4.532,-0.193
4.536,0.357
4.540,0.787
4.544,1.085
4.548,1.210
4.552,1.150
4.556,0.943
4.560,0.207
4.564,-0.853
4.568,-1.363
4.572,-1.802
4.576,-2.092
4.580,-2.195
4.584,-2.143
4.588,-1.948
4.592,-1.643
4.596,-1.252
4.600,-0.765
4.604,-0.193
4.608,0.357
4.612,0.792
4.616,1.093
4.620,1.220
4.624,1.180
4.628,0.985
4.632,0.688
4.636,0.302
4.640,-0.863
4.644,-1.337
4.648,-1.782
4.652,-2.083
4.656,-2.197
4.660,-2.147
4.664,-1.962
4.668,-1.663
4.672,-1.292
4.676,-0.782
4.680,-0.217
4.684,0.343
4.688,0.772
4.692,1.087
4.696,1.218
4.700,1.177
4.704,0.990
4.708,0.688
4.712,0.318
4.716,-0.172
4.720,-1.450
4.724,-1.782
4.728,-2.062
4.732,-2.203
4.736,-2.152
4.740,-1.978
4.744,-1.650
4.748,-1.298
4.752,-0.805
4.756,-0.228
4.760,0.343
4.764,0.782
4.768,1.093
4.772,1.222
4.776,1.177
4.780,0.995
4.784,0.693
4.788,0.312
4.792,-0.180
4.796,-0.755
4.800,-1.827
4.804,-2.083
4.808,-2.195
4.812,-2.163
4.816,-1.972
4.820,-1.657
4.824,-1.262
4.828,-0.772
4.832,-0.203
4.836,0.367
4.840,0.820
4.844,1.110
4.848,1.238
4.852,1.190
4.856,1.005
4.860,0.698
4.864,0.310
4.868,-0.182
4.872,-0.752
4.876,-1.312
4.880,-2.090
4.884,-2.175
4.888,-2.135
4.892,-1.940
4.896,-1.640
4.900,-1.258
4.904,-0.765
4.908,-0.193
4.912,0.367
4.916,0.792
4.920,1.093
4.924,1.222
4.928,1.173
4.932,0.975
4.936,0.657
4.940,0.265
4.944,-0.228
4.948,-0.812
4.952,-1.370
4.956,-1.802
4.960,-2.192
4.964,-2.123
4.968,-1.952
4.972,-1.650
4.976,-1.252
4.980,-0.752
4.984,-0.172
4.988,0.393
4.992,0.848
4.996,1.147
5.000,1.298
5.004,1.222
5.008,1.028
5.012,0.720
5.016,0.347
5.020,-0.147
5.024,-0.733
5.028,-1.288
5.032,-1.728
5.036,-2.022
5.040,-2.090
5.044,-1.935
5.048,-1.633
5.052,-1.252
5.056,-0.755
5.060,-0.203
5.064,0.352
5.068,0.787
5.072,1.077
5.076,1.208
5.080,1.153
5.084,0.953
5.088,0.652
5.092,0.273
5.096,-0.223
5.100,-0.812
5.104,-1.367
5.108,-1.792
5.112,-2.092
5.116,-2.203
5.120,-1.873
5.124,-1.202
5.128,-0.738
5.132,-0.113
5.136,0.390
5.140,0.823
5.144,1.110
5.148,1.232
5.152,1.183
5.156,0.993
5.160,0.677
5.164,0.297
5.168,-0.203
5.172,-0.772
5.176,-1.320
5.180,-1.742
5.184,-2.022
5.188,-2.138
5.192,-2.083
5.196,-1.883
5.200,-1.133
5.204,-0.715
5.208,-0.170
5.212,0.378
5.216,0.797
5.220,1.090
5.224,1.208
5.228,1.147
5.232,0.955
5.236,0.657
5.240,0.273
5.244,-0.233
5.248,-0.823
5.252,-1.377
5.256,-1.815
5.260,-2.098
5.264,-2.203
5.268,-2.132
5.272,-1.933
5.276,-1.617
5.280,-0.623
5.284,-0.147
5.288,0.395
5.292,0.830
5.296,1.110
5.300,1.228
5.304,1.175
5.308,0.985
5.312,0.677
5.316,0.307
5.320,-0.188
5.324,-0.752
5.328,-1.305
5.332,-1.735
5.336,-2.022
5.340,-2.135
5.344,-2.092
5.348,-1.897
5.352,-1.603
5.356,-1.218
5.360,-0.087
5.364,0.415
5.368,0.845
5.372,1.117
5.376,1.232
5.380,1.173
5.384,0.943
5.388,0.305
5.392,-0.172
5.396,-0.738
5.400,-1.292
5.404,-1.728
5.408,-2.015
5.412,-2.140
5.416,-2.092
5.420,-1.897
5.424,-1.607
5.428,-1.222
5.432,-0.738
5.436,-0.177
5.440,0.858
5.444,1.077
5.448,1.195
5.452,1.140
5.456,0.945
5.460,0.630
5.464,0.260
5.468,-0.242
5.472,-0.815
5.476,-1.355
5.480,-1.788
5.484,-2.058
5.488,-2.180
5.492,-2.123
5.496,-1.887
5.500,-1.613
5.504,-1.228
5.508,-0.733
5.512,-0.163
5.516,0.393
5.520,1.153
5.524,1.228
5.528,1.155
5.532,0.978
5.536,0.667
5.540,0.287
5.544,-0.207
5.548,-0.782
5.552,-1.337
5.556,-1.780
5.560,-2.062
5.564,-2.185
5.568,-2.130
5.572,-1.938
5.576,-1.633
5.580,-1.238
5.584,-0.738
5.588,-0.182
5.592,0.370
5.596,0.810
5.600,1.212
5.604,1.167
5.608,0.958
5.612,0.657
5.616,0.278
5.620,-0.223
5.624,-0.802
5.628,-1.343
5.632,-1.782
5.636,-2.058
5.640,-2.172
5.644,-2.107
5.648,-1.907
5.652,-1.610
5.656,-1.220
5.660,-0.733
5.664,-0.168
5.668,0.388
5.672,0.823
5.676,1.103
5.680,1.143
5.684,0.980
5.688,0.670
5.692,0.297
5.696,-0.207
5.700,-0.777
5.704,-1.335
5.708,-1.768
5.712,-2.045
5.716,-2.152
5.720,-2.098
5.724,-1.893
5.728,-1.600
5.732,-1.212
5.736,-0.723
5.740,-0.147
5.744,0.388
5.748,0.823
5.752,1.090
5.756,1.208
5.760,0.907
5.764,0.128
5.768,-0.268
5.772,-0.807
5.776,-1.350
5.780,-1.778
5.784,-2.060
5.788,-2.163
5.792,-2.107
5.796,-1.903
5.800,-1.607
5.804,-1.208
5.808,-0.700
5.812,-0.138
5.816,0.410
5.820,0.833
5.824,1.107
5.828,1.222
5.832,1.157
5.836,0.950
5.840,0.198
5.844,-0.868
5.848,-1.353
5.852,-1.782
5.856,-2.060
5.860,-2.178
5.864,-2.120
5.868,-1.940
5.872,-1.643
5.876,-1.238
5.880,-0.723
5.884,-0.188
5.888,0.367
5.892,0.787
5.896,1.073
5.900,1.180
5.904,1.110
5.908,0.917
5.912,0.620
5.916,0.245
5.920,-0.907
5.924,-1.353
5.928,-1.782
5.932,-2.053
5.936,-2.152
5.940,-2.098
5.944,-1.900
5.948,-1.607
5.952,-1.210
5.956,-0.733
5.960,-0.170
5.964,0.372
5.968,0.787
5.972,1.073
5.976,1.180
5.980,1.105
5.984,0.907
5.988,0.608
5.992,0.225
5.996,-0.260
6.000,-1.452
6.004,-1.802
6.008,-2.070
6.012,-2.172
6.016,-2.103
6.020,-1.897
6.024,-1.603
6.028,-1.188
6.032,-0.698
6.036,-0.138
6.040,0.412
6.044,0.838
6.048,1.107
6.052,1.215
6.056,1.147
6.060,0.948
6.064,0.627
6.068,0.237
6.072,-0.258
6.076,-0.833
6.080,-1.860
6.084,-2.092
6.088,-2.188
6.092,-2.135
6.096,-1.935
6.100,-1.627
6.104,-1.220
6.108,-0.728
6.112,-0.147
6.116,0.390
6.120,0.818
6.124,1.097
6.128,1.208
6.132,1.145
6.136,0.943
6.140,0.627
6.144,0.247
6.148,-0.258
6.152,-0.848
6.156,-1.397
6.160,-2.152
6.164,-2.223
6.168,-2.150
6.172,-1.948
6.176,-1.630
6.180,-1.220
6.184,-0.723
6.188,-0.142
6.192,0.412
6.196,0.853
6.200,1.140
6.204,1.250
6.208,1.192
6.212,0.983
6.216,0.685
6.220,0.278
6.224,-0.223
6.228,-0.807
6.232,-1.350
6.236,-1.788
6.240,-2.180
6.244,-2.125
6.248,-1.927
6.252,-1.617
6.256,-1.215
6.260,-0.728
6.264,-0.142
6.268,0.432
6.272,0.833
6.276,1.113
6.280,1.222
6.284,1.170
6.288,0.978
6.292,0.652
6.296,0.263
6.300,-0.230
6.304,-0.823
6.308,-1.373
6.312,-1.810
6.316,-2.087
6.320,-2.103
6.324,-1.933
6.328,-1.615
6.332,-1.208
6.336,-0.703
6.340,-0.133
6.344,0.412
6.348,0.838
6.352,1.110
6.356,1.220
6.360,1.150
6.364,0.943
6.368,0.627
6.372,0.245
6.376,-0.253
6.380,-0.823
6.384,-1.367
6.388,-1.790
6.392,-2.062
6.396,-2.167
6.400,-1.857
6.404,-1.607
6.408,-1.190
6.412,-0.695
6.416,-0.125
6.420,0.422
6.424,0.853
6.428,1.133
6.432,1.232
6.436,1.167
6.440,0.958
6.444,0.667
6.448,0.270
6.452,-0.223
6.456,-0.802
6.460,-1.347
6.464,-1.778
6.468,-2.045
6.472,-2.152
6.476,-2.100
6.480,-1.522
6.484,-0.652
6.488,-0.048
6.492,0.435
6.496,0.868
6.500,1.145
6.504,1.252
6.508,1.183
6.512,0.983
6.516,0.670
6.520,0.263
6.524,-0.255
6.528,-0.843
6.532,-1.387
6.536,-1.812
6.540,-2.085
6.544,-2.180
6.548,-2.105
6.552,-1.900
6.556,-1.583
6.560,-0.598
6.564,-0.107
6.568,0.432
6.572,0.868
6.576,1.147
6.580,1.248
6.584,1.183
6.588,0.988
6.592,0.675
6.596,0.273
6.600,-0.223
6.604,-0.812
6.608,-1.367
6.612,-1.805
6.616,-2.087
6.620,-2.188
6.624,-2.127
6.628,-1.938
6.632,-1.623
6.636,-1.218
6.640,-0.058
6.644,0.393
6.648,0.825
6.652,1.103
6.656,1.208
6.660,1.147
6.664,0.940
6.668,0.635
6.672,0.233
6.676,-0.263
6.680,-0.865
6.684,-1.403
6.688,-1.827
6.692,-2.103
6.696,-2.208
6.700,-2.127
6.704,-1.923
6.708,-1.603
6.712,-1.200
6.716,-0.698
6.720,0.500
6.724,0.833
6.728,1.110
6.732,1.218
6.736,1.157
6.740,0.958
6.744,0.657
6.748,0.263
6.752,-0.245
6.756,-0.828
6.760,-1.377
6.764,-1.810
6.768,-2.092
6.772,-2.190
6.776,-2.132
6.780,-1.933
6.784,-1.623
6.788,-1.218
6.792,-0.715
6.796,-0.140
6.800,0.868
6.804,1.097
6.808,1.198
6.812,1.107
6.816,0.873
6.820,0.598
6.824,0.253
6.828,-0.265
6.832,-0.838
6.836,-1.377
6.840,-1.808
6.844,-2.067
6.848,-2.170
6.852,-2.103
6.856,-1.893
6.860,-1.587
6.864,-1.200
6.868,-0.690
6.872,-0.107
6.876,0.438
6.880,1.190
6.884,1.262
6.888,1.210
6.892,1.015
6.896,0.698
6.900,0.300
6.904,-0.223
6.908,-0.787
6.912,-1.353
6.916,-1.785
6.920,-2.062
6.924,-2.172
6.928,-2.107
6.932,-1.903
6.936,-1.603
6.940,-1.202
6.944,-0.688
6.948,-0.115
6.952,0.430
6.956,0.855
6.960,1.218
6.964,1.150
6.968,0.940
6.972,0.632
6.976,0.247
6.980,-0.275
6.984,-0.853
6.988,-1.385
6.992,-1.817
6.996,-2.083
7.000,-2.175
7.004,-2.100
7.008,-1.887
7.012,-1.567
7.016,-1.177
7.020,-0.662
7.024,-0.100
7.028,0.438
7.032,0.853
7.036,1.133
7.040,1.133
7.044,0.940
7.048,0.637
7.052,0.247
7.056,-0.273
7.060,-0.850
7.064,-1.405
7.068,-1.895
7.072,-2.098
7.076,-2.183
7.080,-2.123
7.084,-1.923
7.088,-1.610
7.092,-1.208
7.096,-0.693
7.100,-0.130
7.104,0.417
7.108,0.843
7.112,1.113
7.116,1.225
7.120,0.910
7.124,0.637
7.128,0.258
7.132,-0.260
7.136,-0.830
7.140,-1.373
7.144,-1.802
7.148,-2.065
7.152,-2.163
7.156,-2.092
7.160,-1.877
7.164,-1.567
7.168,-1.177
7.172,-0.672
7.176,-0.107
7.180,0.422
7.184,0.863
7.188,1.113
7.192,1.210
7.196,1.140
7.200,0.568
7.204,0.235
7.208,-0.275
7.212,-0.905
7.216,-1.427
7.220,-1.805
7.224,-2.065
7.228,-2.165
7.232,-2.098
7.236,-1.873
7.240,-1.567
7.244,-1.188
7.248,-0.670
7.252,-0.100
7.256,0.438
7.260,0.870
7.264,1.143
7.268,1.235
7.272,1.177
7.276,0.975
7.280,0.207
7.284,-1.002
7.288,-1.812
7.292,-2.062
7.296,-2.175
7.300,-2.107
7.304,-1.897
7.308,-1.580
7.312,-1.185
7.316,-0.667
7.320,-0.098
7.324,0.440
7.328,0.868
7.332,1.145
7.336,1.232
7.340,1.173
7.344,0.950
7.348,0.637
7.352,0.253
7.356,-0.263
7.360,-1.470
7.364,-1.812
7.368,-2.085
7.372,-2.175
7.376,-2.103
7.380,-1.895
7.384,-1.577
7.388,-1.192
7.392,-0.682
7.396,-0.113
7.400,0.427
7.404,0.853
7.408,1.133
7.412,1.220
7.416,1.147
7.420,0.938
7.424,0.623
7.428,0.175
7.432,-0.297
7.436,-0.863
7.440,-1.873
7.444,-2.087
7.448,-2.172
7.452,-2.100
7.456,-1.887
7.460,-1.575
7.464,-1.177
7.468,-0.660
7.472,-0.100
7.476,0.432
7.480,0.855
7.484,1.133
7.488,1.228
7.492,1.157
7.496,0.948
7.500,0.625
7.504,0.233
7.508,-0.295
7.512,-0.858
7.516,-1.405
7.520,-2.098
7.524,-2.152
7.528,-2.085
7.532,-1.863
7.536,-1.548
7.540,-1.163
7.544,-0.647
7.548,-0.085
7.552,0.453
7.556,0.870
7.560,1.137
7.564,1.218
7.568,1.137
7.572,0.927
7.576,0.585
7.580,0.207
7.584,-0.328
7.588,-0.897
7.592,-1.427
7.596,-1.853
7.600,-2.205
7.604,-2.132
7.608,-1.905
7.612,-1.603
7.616,-1.150
7.620,-0.682
7.624,-0.113
7.628,0.455
7.632,0.858
7.636,1.117
7.640,1.220
7.644,1.157
7.648,0.943
7.652,0.632
7.656,0.247
7.660,-0.282
7.664,-0.860
7.668,-1.393
7.672,-1.815
7.676,-2.085
7.680,-2.087
7.684,-1.830
7.688,-1.562
7.692,-1.130
7.696,-0.068
7.700,0.448
7.704,0.863
7.708,1.137
7.712,1.225
7.716,1.150
7.720,0.943
7.724,0.652
7.728,0.260
7.732,-0.268
7.736,-0.845
7.740,-1.375
7.744,-1.792
7.748,-2.050
7.752,-2.143
7.756,-2.062
7.760,-1.492
7.764,-1.153
7.768,-0.650
7.772,-0.072
7.776,0.463
7.780,0.887
7.784,1.163
7.788,1.262
7.792,1.192
7.796,0.988
7.800,0.672
7.804,0.278
7.808,-0.253
7.812,-0.828
7.816,-1.403
7.820,-1.802
7.824,-2.067
7.828,-2.163
7.832,-2.087
7.836,-1.865
7.840,-1.058
7.844,-0.048
7.848,0.497
7.852,0.907
7.856,1.177
7.860,1.258
7.864,1.177
7.868,0.958
7.872,0.630
7.876,0.228
7.880,-0.297
7.884,-0.870
7.888,-1.403
7.892,-1.820
7.896,-2.087
7.900,-2.170
7.904,-2.100
7.908,-1.883
7.912,-1.565
7.916,-1.165
7.920,-0.007
7.924,0.940
7.928,1.150
7.932,1.230
7.936,1.167
7.940,0.953
7.944,0.657
7.948,0.250
7.952,-0.273
7.956,-0.870
7.960,-1.397
7.964,-1.812
7.968,-2.087
7.972,-2.172
7.976,-2.098
7.980,-1.883
7.984,-1.570
7.988,-1.173
7.992,-0.662
7.996,-0.083
8.000,0.917
8.004,1.143
8.008,1.228
8.012,1.157
8.016,0.948
8.020,0.632
8.024,0.235
8.028,-0.282
8.032,-0.887
8.036,-1.413
8.040,-1.825
8.044,-2.090
8.048,-2.172
8.052,-2.087
8.056,-1.867
8.060,-1.542
8.064,-1.163
8.068,-0.652
8.072,0.060
8.076,0.460
8.080,1.145
8.084,1.218
8.088,1.135
8.092,0.917
8.096,0.613
8.100,0.228
8.104,-0.287
8.108,-0.882
8.112,-1.403
8.116,-1.817
8.120,-2.085
8.124,-2.167
8.128,-2.092
8.132,-1.873
8.136,-1.565
8.140,-1.167
8.144,-0.660
8.148,-0.068
8.152,0.460
8.156,0.885
8.160,1.232
8.164,1.167
8.168,0.953
8.172,0.652
8.176,0.250
8.180,-0.263
8.184,-0.853
8.188,-1.383
8.192,-1.792
8.196,-2.058
8.200,-2.143
8.204,-2.060
8.208,-1.853
8.212,-1.532
8.216,-1.133
8.220,-0.603
8.224,-0.045
8.228,0.477
8.232,0.882
8.236,1.153
8.240,1.137
8.244,0.940
8.248,0.618
8.252,0.223
8.256,-0.295
8.260,-0.900
8.264,-1.427
8.268,-1.847
8.272,-2.103
8.276,-2.183
8.280,-2.098
8.284,-1.887
8.288,-1.562
8.292,-1.137
8.296,-0.603
8.300,-0.030
8.304,0.512
8.308,0.932
8.312,1.173
8.316,1.225
8.320,0.855
8.324,0.573
8.328,0.177
8.332,-0.347
8.336,-0.940
8.340,-1.470
8.344,-1.883
8.348,-2.143
8.352,-2.217
8.356,-2.135
8.360,-1.923
8.364,-1.577
8.368,-1.185
8.372,-0.657
8.376,-0.060
8.380,0.470
8.384,0.892
8.388,1.160
8.392,1.252
8.396,1.170
8.400,0.557
8.404,0.217
8.408,-0.302
8.412,-0.897
8.416,-1.425
8.420,-1.847
8.424,-2.103
8.428,-2.180
8.432,-2.100
8.436,-1.877
8.440,-1.562
8.444,-1.167
8.448,-0.657
8.452,-0.068
8.456,0.458
8.460,0.868
8.464,1.133
8.468,1.212
8.472,1.117
8.476,0.912
8.480,0.117
8.484,-0.325
8.488,-0.907
8.492,-1.442
8.496,-1.843
8.500,-2.100
8.504,-2.175
8.508,-2.090
8.512,-1.860
8.516,-1.542
8.520,-1.140
8.524,-0.625
8.528,-0.048
8.532,0.472
8.536,0.892
8.540,1.155
8.544,1.235
8.548,1.167
8.552,0.943
8.556,0.620
8.560,-0.380
8.564,-1.425
8.568,-1.840
8.572,-2.100
8.576,-2.178
8.580,-2.098
8.584,-1.857
8.588,-1.548
8.592,-1.145
8.596,-0.623
8.600,-0.048
8.604,0.475
8.608,0.902
8.612,1.147
8.616,1.225
8.620,1.143
8.624,0.917
8.628,0.598
8.632,0.198
8.636,-0.323
8.640,-1.520
8.644,-1.847
8.648,-2.103
8.652,-2.175
8.656,-2.092
8.660,-1.860
8.664,-1.528
8.668,-1.107
8.672,-0.578
8.676,0.020
8.680,0.532
8.684,0.930
8.688,1.183
8.692,1.258
8.696,1.167
8.700,0.943
8.704,0.618
8.708,0.217
8.712,-0.302
8.716,-0.900
8.720,-1.887
8.724,-2.095
8.728,-2.167
8.732,-2.087
8.736,-1.857
8.740,-1.542
8.744,-1.140
8.748,-0.618
8.752,-0.045
8.756,0.477
8.760,0.887
8.764,1.147
8.768,1.228
8.772,1.150
8.776,0.932
8.780,0.600
8.784,0.220
8.788,-0.305
8.792,-0.907
8.796,-1.425
8.800,-2.135
8.804,-2.183
8.808,-2.098
8.812,-1.867
8.816,-1.538
8.820,-1.133
8.824,-0.608
8.828,-0.028
8.832,0.507
8.836,0.902
8.840,1.170
8.844,1.238
8.848,1.147
8.852,0.927
8.856,0.605
8.860,0.198
8.864,-0.340
8.868,-0.927
8.872,-1.458
8.876,-1.857
8.880,-2.188
8.884,-2.120
8.888,-1.893
8.892,-1.573
8.896,-1.163
8.900,-0.642
8.904,-0.052
8.908,0.477
8.912,0.897
8.916,1.150
8.920,1.228
8.924,1.153
8.928,0.938
8.932,0.613
8.936,0.223
8.940,-0.302
8.944,-0.902
8.948,-1.427
8.952,-1.843
8.956,-2.098
8.960,-2.055
8.964,-1.860
8.968,-1.538
8.972,-1.107
8.976,-0.610
8.980,-0.048
8.984,0.507
8.988,0.897
8.992,1.143
8.996,1.225
9.000,1.143
9.004,0.907
9.008,0.588
9.012,0.177
9.016,-0.360
9.020,-0.940
9.024,-1.490
9.028,-1.877
9.032,-2.130
9.036,-2.188
9.040,-1.840
9.044,-1.552
9.048,-1.143
9.052,-0.625
9.056,-0.050
9.060,0.495
9.064,0.892
9.068,1.147
9.072,1.225
9.076,1.140
9.080,0.930
9.084,0.618
9.088,0.220
9.092,-0.297
9.096,-0.882
9.100,-1.420
9.104,-1.817
9.108,-2.067
9.112,-2.147
9.116,-2.058
9.120,-1.462
9.124,-1.107
9.128,-0.590
9.132,-0.028
9.136,0.510
9.140,0.902
9.144,1.170
9.148,1.238
9.152,1.155
9.156,0.938
9.160,0.618
9.164,0.217
9.168,-0.302
9.172,-0.892
9.176,-1.425
9.180,-1.827
9.184,-2.085
9.188,-2.163
9.192,-2.083
9.196,-1.853
9.200,-1.050
9.204,0.022
9.208,0.502
9.212,0.902
9.216,1.155
9.220,1.232
9.224,1.147
9.228,0.917
9.232,0.598
9.236,0.198
9.240,-0.338
9.244,-0.912
9.248,-1.462
9.252,-1.857
9.256,-2.107
9.260,-2.175
9.264,-2.090
9.268,-1.863
9.272,-1.542
9.276,-1.127
9.280,0.075
9.284,0.943
9.288,1.175
9.292,1.250
9.296,1.157
9.300,0.940
9.304,0.618
9.308,0.217
9.312,-0.323
9.316,-0.912
9.320,-1.460
9.324,-1.857
9.328,-2.120
9.332,-2.190
9.336,-2.107
9.340,-1.893
9.344,-1.570
9.348,-1.167
9.352,-0.647
9.356,0.015
9.360,0.948
9.364,1.137
9.368,1.212
9.372,1.133
9.376,0.897
9.380,0.588
9.384,0.185
9.388,-0.347
9.392,-0.927
9.396,-1.468
9.400,-1.857
9.404,-2.112
9.408,-2.180
9.412,-2.092
9.416,-1.857
9.420,-1.542
9.424,-1.125
9.428,-0.613
9.432,-0.033
9.436,0.502
9.440,1.147
9.444,1.198
9.448,1.097
9.452,0.892
9.456,0.578
9.460,0.182
9.464,-0.343
9.468,-0.912
9.472,-1.460
9.476,-1.843
9.480,-2.067
9.484,-2.132
9.488,-2.030
9.492,-1.812
9.496,-1.488
9.500,-1.077
9.504,-0.573
9.508,-0.018
9.512,0.510
9.516,0.897
9.520,1.192
9.524,1.060
9.528,0.860
9.532,0.565
9.536,0.152
9.540,-0.372
9.544,-0.945
9.548,-1.482
9.552,-1.863
9.556,-2.107
9.560,-2.163
9.564,-2.062
9.568,-1.840
9.572,-1.512
9.576,-1.097
9.580,-0.578
9.584,-0.013
9.588,0.522
9.592,0.910
9.596,1.155
9.600,1.097
9.604,0.897
9.608,0.575
9.612,0.175
9.616,-0.362
9.620,-0.940
9.624,-1.470
9.628,-1.867
9.632,-2.110
9.636,-2.178
9.640,-2.090
9.644,-1.857
9.648,-1.530
9.652,-1.110
9.656,-0.578
9.660,-0.007
9.664,0.535
9.668,0.927
9.672,1.177
9.676,1.238
9.680,0.868
9.684,0.583
9.688,0.180
9.692,-0.362
9.696,-0.945
9.700,-1.492
9.704,-1.883
9.708,-2.127
9.712,-2.183
9.716,-2.087
9.720,-1.863
9.724,-1.540
9.728,-1.123
9.732,-0.585
9.736,-0.018
9.740,0.525
9.744,0.902
9.748,1.173
9.752,1.228
9.756,1.143
9.760,0.532
9.764,0.188
9.768,-0.393
9.772,-0.985
9.776,-1.900
9.780,-2.123
9.784,-2.183
9.788,-2.087
9.792,-1.857
9.796,-1.530
9.800,-1.133
9.804,-0.608
9.808,-0.033
9.812,0.502
9.816,0.897
9.820,1.143
9.824,1.208
9.828,1.113
9.832,0.892
9.836,0.568
9.840,-0.453
9.844,-0.938
9.848,-1.468
9.852,-1.860
9.856,-2.103
9.860,-2.175
9.864,-2.080
9.868,-1.853
9.872,-1.512
9.876,-1.107
9.880,-0.583
9.884,-0.018
9.888,0.517
9.892,0.902
9.896,1.153
9.900,1.212
9.904,1.107
9.908,0.887
9.912,0.552
9.916,0.142
9.920,-1.065
9.924,-1.903
9.928,-2.143
9.932,-2.205
9.936,-2.098
9.940,-1.865
9.944,-1.538
9.948,-1.123
9.952,-0.585
9.956,-0.018
9.960,0.515
9.964,0.907
9.968,1.153
9.972,1.222
9.976,1.140
9.980,0.912
9.984,0.588
9.988,0.180
9.992,-0.362
9.996,-0.948
10.000,-1.982
10.004,-2.143
10.008,-2.192
10.012,-2.060
10.016,-1.863
10.020,-1.538
10.024,-1.123
10.028,-0.583
10.032,-0.010
10.036,0.527
10.040,0.927
10.044,1.170
10.048,1.238
10.052,1.147
10.056,0.917
10.060,0.585
10.064,0.185
10.068,-0.347
10.072,-0.927
10.076,-1.470
10.080,-2.132
10.084,-2.175
10.088,-2.087
10.092,-1.853
10.096,-1.528
10.100,-1.100
10.104,-0.573
10.108,0.018
10.112,0.527
10.116,0.917
10.120,1.163
10.124,1.228
10.128,1.113
10.132,0.910
10.136,0.588
10.140,0.193
10.144,-0.340
10.148,-0.922
10.152,-1.455
10.156,-1.853
10.160,-2.150
10.164,-2.058
10.168,-1.827
10.172,-1.502
10.176,-1.087
10.180,-0.568
10.184,0.020
10.188,0.532
10.192,0.930
10.196,1.157
10.200,1.222
10.204,1.113
10.208,0.887
10.212,0.552
10.216,0.140
10.220,-0.403
10.224,-0.985
10.228,-1.512
10.232,-1.907
10.236,-2.143
10.240,-2.087
10.244,-1.873
10.248,-1.542
10.252,-1.127
10.256,-0.593
10.260,-0.028
10.264,0.500
10.268,0.897
10.272,1.140
10.276,1.195
10.280,1.100
10.284,0.873
10.288,0.555
10.292,0.142
10.296,-0.393
10.300,-0.988
10.304,-1.505
10.308,-1.923
10.312,-2.147
10.316,-2.215
10.320,-1.843
10.324,-1.093
10.328,-0.603
10.332,-0.028
10.336,0.497
10.340,0.905
10.344,1.147
10.348,1.212
10.352,1.113
10.356,0.887
10.360,0.575
10.364,0.172
10.368,-0.365
10.372,-0.938
10.376,-1.465
10.380,-1.860
10.384,-2.100
10.388,-2.163
10.392,-2.060
10.396,-1.847
10.400,-1.032
10.404,-0.593
10.408,-0.025
10.412,0.502
10.416,0.900
10.420,1.143
10.424,1.208
10.428,1.105
10.432,0.873
10.436,0.547
10.440,0.135
10.444,-0.403
10.448,-0.983
10.452,-1.520
10.456,-1.933
10.460,-2.150
10.464,-2.205
10.468,-2.100
10.472,-1.863
10.476,-1.530
10.480,-0.463
10.484,0.028
10.488,0.552
10.492,0.945
10.496,1.183
10.500,1.238
10.504,1.140
10.508,0.902
10.512,0.575
10.516,0.130
10.520,-0.378
10.524,-0.968
10.528,-1.495
10.532,-1.895
10.536,-2.143
10.540,-2.192
10.544,-2.095
10.548,-1.863
10.552,-1.530
10.556,-1.107
10.560,0.098
10.564,0.527
10.568,0.920
10.572,1.165
10.576,1.222
10.580,1.133
10.584,0.900
10.588,0.578
10.592,0.172
10.596,-0.372
10.600,-0.963
10.604,-1.482
10.608,-1.875
10.612,-2.112
10.616,-2.167
10.620,-2.062
10.624,-1.843
10.628,-1.512
10.632,-1.093
10.636,-0.573
10.640,0.583
10.644,1.147
10.648,1.212
10.652,1.107
10.656,0.875
10.660,0.557
10.664,0.147
10.668,-0.383
10.672,-0.968
10.676,-1.488
10.680,-1.885
10.684,-2.123
10.688,-2.170
10.692,-2.060
10.696,-1.843
10.700,-1.508
10.704,-1.087
10.708,-0.565
10.712,0.022
10.716,0.532
10.720,1.177
10.724,1.212
10.728,1.073
10.732,0.868
10.736,0.540
10.740,0.133
10.744,-0.403
10.748,-0.988
10.752,-1.508
10.756,-1.903
10.760,-2.127
10.764,-2.178
10.768,-2.080
10.772,-1.840
10.776,-1.502
10.780,-1.097
10.784,-0.573
10.788,-0.010
10.792,0.507
10.796,0.897
10.800,1.177
10.804,1.083
10.808,0.860
10.812,0.547
10.816,0.138
10.820,-0.407
10.824,-0.990
10.828,-1.505
10.832,-1.903
10.836,-2.138
10.840,-2.180
10.844,-2.060
10.848,-1.827
10.852,-1.488
10.856,-1.060
10.860,-0.527
10.864,0.058
10.868,0.573
10.872,0.958
10.876,1.192
10.880,1.103
10.884,0.902
10.888,0.573
10.892,0.150
10.896,-0.390
10.900,-1.002
10.904,-1.500
10.908,-1.897
10.912,-2.127
10.916,-2.180
10.920,-2.067
10.924,-1.843
10.928,-1.512
10.932,-1.087
10.936,-0.562
10.940,0.028
10.944,0.547
10.948,0.938
10.952,1.177
10.956,1.238
10.960,0.848
10.964,0.568
10.968,0.147
10.972,-0.390
10.976,-0.973
10.980,-1.488
10.984,-1.870
10.988,-2.103
10.992,-2.140
10.996,-2.030
11.000,-1.792
11.004,-1.468
11.008,-1.048
11.012,-0.512
11.016,0.068
11.020,0.570
11.024,0.948
11.028,1.167
11.032,1.212
11.036,1.097
11.040,0.468
11.044,0.117
11.048,-0.417
11.052,-1.002
11.056,-1.522
11.060,-1.910
11.064,-2.140
11.068,-2.185
11.072,-2.062
11.076,-1.827
11.080,-1.492
11.084,-1.070
11.088,-0.542
11.092,0.048
11.096,0.550
11.100,0.938
11.104,1.167
11.108,1.208
11.112,1.093
11.116,0.858
11.120,0.037
11.124,-0.422
11.128,-1.002
11.132,-1.522
11.136,-1.903
11.140,-2.140
11.144,-2.180
11.148,-2.062
11.152,-1.835
11.156,-1.498
11.160,-1.067
11.164,-0.537
11.168,0.048
11.172,0.550
11.176,0.917
11.180,1.165
11.184,1.218
11.188,1.103
11.192,0.875
11.196,0.542
11.200,-0.530
11.204,-1.010
11.208,-1.538
11.212,-1.923
11.216,-2.143
11.220,-2.183
11.224,-2.085
11.228,-1.833
11.232,-1.498
11.236,-1.067
11.240,-0.540
11.244,0.048
11.248,0.552
11.252,0.927
11.256,1.157
11.260,1.212
11.264,1.087
11.268,0.853
11.272,0.517
11.276,0.102
11.280,-1.110
11.284,-1.540
11.288,-1.962
11.292,-2.160
11.296,-2.192
11.300,-2.092
11.304,-1.847
11.308,-1.508
11.312,-1.083
11.316,0.128
11.320,0.542
11.324,0.915
11.328,1.150
11.332,1.195
11.336,1.087
11.340,0.858
11.344,0.530
11.348,0.113
11.352,-0.415
11.356,-0.990
11.360,-1.942
11.364,-2.152
11.368,-2.047
11.372,-1.808
11.376,-1.462
11.380,-1.028
11.384,-0.502
11.388,0.077
11.392,0.578
11.396,0.943
11.400,1.173
11.404,1.218
11.408,1.097
11.412,0.863
11.416,0.542
11.420,0.117
11.424,-0.417
11.428,-1.010
11.432,-1.498
11.436,-1.903
11.440,-2.172
11.444,-2.080
11.448,-1.827
11.452,-1.498
11.456,-1.060
11.460,-0.527
11.464,0.068
11.468,0.580
11.472,0.953
11.476,1.188
11.480,1.248
11.484,1.143
11.488,0.897
11.492,0.552
11.496,0.138
11.500,-0.407
11.504,-0.988
11.508,-1.502
11.512,-1.887
11.516,-2.127
11.520,-2.030
11.524,-1.812
11.528,-1.472
11.532,-1.073
11.536,-0.542
11.540,0.048
11.544,0.545
11.548,0.932
11.552,1.167
11.556,1.210
11.560,1.097
11.564,0.873
11.568,0.545
11.572,0.138
11.576,-0.412
11.580,-1.002
11.584,-1.512
11.588,-1.903
11.592,-2.140
11.596,-2.185
11.600,-1.823
11.604,-1.455
11.608,-0.983
11.612,-0.502
11.616,0.158
11.620,0.578
11.624,0.943
11.628,1.183
11.632,1.228
11.636,1.107
11.640,0.865
11.644,0.532
11.648,0.113
11.652,-0.430
11.656,-1.022
11.660,-1.542
11.664,-1.938
11.668,-2.160
11.672,-2.192
11.676,-2.065
11.680,-1.417
11.684,-1.052
11.688,-0.537
11.692,0.052
11.696,0.568
11.700,0.958
11.704,1.212
11.708,1.103
11.712,0.863
11.716,0.532
11.720,0.107
11.724,-0.427
11.728,-1.005
11.732,-1.512
11.736,-1.897
11.740,-2.135
11.744,-2.172
11.748,-2.053
11.752,-1.817
11.756,-1.488
11.760,-0.420
11.764,0.072
11.768,0.588
11.772,0.975
11.776,1.192
11.780,1.230
11.784,1.113
11.788,0.877
11.792,0.540
11.796,0.110
11.800,-0.432
11.804,-1.018
11.808,-1.532
11.812,-1.907
11.816,-2.138
11.820,-2.180
11.824,-2.062
11.828,-1.827
11.832,-1.498
11.836,-1.062
11.840,0.233
11.844,0.568
11.848,0.948
11.852,1.183
11.856,1.222
11.860,1.103
11.864,0.863
11.868,0.535
11.872,0.102
11.876,-0.438
11.880,-1.022
11.884,-1.542
11.888,-1.923
11.892,-2.140
11.896,-2.172
11.900,-2.047
11.904,-1.815
11.908,-1.470
11.912,-1.038
11.916,-0.500
11.920,0.688
11.924,0.990
11.928,1.230
11.932,1.117
11.936,0.887
11.940,0.555
11.944,0.133
11.948,-0.412
11.952,-0.998
11.956,-1.502
11.960,-1.893
11.964,-2.123
11.968,-2.163
11.972,-2.042
11.976,-1.808
11.980,-1.482
11.984,-1.048
11.988,-0.515
11.992,0.060
11.996,0.552
12.000,1.153
12.004,1.062
12.008,0.830
12.012,0.507
12.016,0.090
12.020,-0.448
12.024,-1.028
12.028,-1.532
12.032,-1.900
12.036,-2.123
12.040,-2.147
12.044,-2.018
12.048,-1.782
12.052,-1.420
12.056,-1.012
12.060,-0.482
12.064,0.100
12.068,0.600
12.072,0.983
12.076,1.195
12.080,1.075
12.084,0.855
12.088,0.507
12.092,0.098
12.096,-0.458
12.100,-1.052
12.104,-1.562
12.108,-1.948
12.112,-2.172
12.116,-2.205
12.120,-2.065
12.124,-1.840
12.128,-1.498
12.132,-1.060
12.136,-0.530
12.140,0.065
12.144,0.578
12.148,0.953
12.152,1.180
12.156,1.222
12.160,0.828
12.164,0.547
12.168,0.133
12.172,-0.410
12.176,-0.985
12.180,-1.492
12.184,-1.860
12.188,-2.095
12.192,-2.123
12.196,-2.020
12.200,-1.785
12.204,-1.458
12.208,-1.028
12.212,-0.497
12.216,0.092
12.220,0.590
12.224,0.980
12.228,1.192
12.232,1.225
12.236,1.107
12.240,0.458
12.244,0.077
12.248,-0.482
12.252,-1.062
12.256,-1.573
12.260,-1.952
12.264,-2.167
12.268,-2.192
12.272,-2.062
12.276,-1.820
12.280,-1.472
12.284,-1.032
12.288,-0.497
12.292,0.080
12.296,0.590
12.300,0.958
12.304,1.188
12.308,1.222
12.312,1.100
12.316,0.863
12.320,-0.003
12.324,-0.500
12.328,-1.050
12.332,-1.552
12.336,-1.935
12.340,-2.143
12.344,-2.172
12.348,-2.047
12.352,-1.802
12.356,-1.460
12.360,-1.018
12.364,-0.487
12.368,0.107
12.372,0.593
12.376,0.958
12.380,1.188
12.384,1.222
12.388,1.107
12.392,0.873
12.396,0.540
12.400,-0.522
12.404,-1.105
12.408,-1.532
12.412,-1.933
12.416,-2.152
12.420,-2.188
12.424,-2.067
12.428,-1.830
12.432,-1.492
12.436,-1.062
12.440,-0.525
12.444,0.098
12.448,0.568
12.452,0.938
12.456,1.157
12.460,1.192
12.464,1.077
12.468,0.833
12.472,0.517
12.476,0.098
12.480,-1.105
12.484,-1.528
12.488,-1.897
12.492,-2.107
12.496,-2.147
12.500,-2.027
12.504,-1.788
12.508,-1.458
12.512,-1.022
12.516,-0.492
12.520,0.087
12.524,0.583
12.528,0.953
12.532,1.170
12.536,1.192
12.540,1.067
12.544,0.828
12.548,0.492
12.552,0.068
12.556,-0.485
12.560,-1.630
12.564,-1.933
12.568,-2.138
12.572,-2.172
12.576,-2.053
12.580,-1.815
12.584,-1.470
12.588,-1.028
12.592,-0.490
12.596,0.098
12.600,0.590
12.604,0.958
12.608,1.175
12.612,1.212
12.616,1.077
12.620,0.833
12.624,0.502
12.628,0.068
12.632,-0.482
12.636,-1.062
12.640,-1.985
12.644,-2.160
12.648,-2.178
12.652,-2.047
12.656,-1.802
12.660,-1.462
12.664,-1.030
12.668,-0.490
12.672,0.090
12.676,0.580
12.680,0.940
12.684,1.147
12.688,1.173
12.692,1.052
12.696,0.797
12.700,0.468
12.704,0.058
12.708,-0.487
12.712,-1.058
12.716,-1.552
12.720,-2.152
12.724,-2.033
12.728,-1.792
12.732,-1.458
12.736,-1.018
12.740,-0.472
12.744,0.107
12.748,0.598
12.752,0.978
12.756,1.177
12.760,1.208
12.764,1.077
12.768,0.835
12.772,0.500
12.776,0.070
12.780,-0.482
12.784,-1.058
12.788,-1.567
12.792,-1.938
12.796,-2.150
12.800,-2.022
12.804,-1.817
12.808,-1.455
12.812,-1.002
12.816,-0.497
12.820,0.090
12.824,0.588
12.828,0.983
12.832,1.183
12.836,1.218
12.840,1.093
12.844,0.848
12.848,0.505
12.852,0.065
12.856,-0.463
12.860,-1.048
12.864,-1.548
12.868,-1.923
12.872,-2.127
12.876,-2.150
12.880,-1.675
12.884,-1.425
12.888,-0.993
12.892,-0.458
12.896,0.113
12.900,0.608
12.904,0.978
12.908,1.188
12.912,1.218
12.916,1.097
12.920,0.858
12.924,0.517
12.928,0.092
12.932,-0.460
12.936,-1.052
12.940,-1.567
12.944,-1.938
12.948,-2.143
12.952,-2.172
12.956,-2.035
12.960,-1.365
12.964,-0.990
12.968,-0.443
12.972,0.138
12.976,0.627
12.980,0.993
12.984,1.210
12.988,1.222
12.992,1.107
12.996,0.873
13.000,0.540
13.004,0.110
13.008,-0.438
13.012,-1.022
13.016,-1.540
13.020,-1.897
13.024,-2.123
13.028,-2.147
13.032,-2.020
13.036,-1.770
13.040,-0.812
13.044,-0.343
13.048,0.142
13.052,0.667
13.056,1.012
13.060,1.218
13.064,1.235
13.068,1.107
13.072,0.853
13.076,0.512
13.080,0.087
13.084,-0.463
13.088,-1.040
13.092,-1.540
13.096,-1.897
13.100,-2.112
13.104,-2.143
13.108,-2.020
13.112,-1.788
13.116,-1.452
13.120,-0.378
13.124,0.110
13.128,0.613
13.132,0.988
13.136,1.198
13.140,1.220
13.144,1.097
13.148,0.853
13.152,0.512
13.156,0.077
13.160,-0.463
13.164,-1.032
13.168,-1.542
13.172,-1.897
13.176,-2.107
13.180,-2.135
13.184,-2.013
13.188,-1.762
13.192,-1.407
13.196,-0.973
13.200,0.253
13.204,0.662
13.208,1.028
13.212,1.222
13.216,1.238
13.220,1.103
13.224,0.858
13.228,0.512
13.232,0.068
13.236,-0.502
13.240,-1.075
13.244,-1.613
13.248,-1.952
13.252,-2.160
13.256,-2.178
13.260,-2.045
13.264,-1.800
13.268,-1.455
13.272,-1.012
13.276,-0.463
13.280,0.685
13.284,0.978
13.288,1.188
13.292,1.222
13.296,1.100
13.300,0.860
13.304,0.532
13.308,0.102
13.312,-0.448
13.316,-1.028
13.320,-1.538
13.324,-1.893
13.328,-2.103
13.332,-2.132
13.336,-2.007
13.340,-1.770
13.344,-1.423
13.348,-1.002
13.352,-0.448
13.356,0.128
13.360,1.028
13.364,1.177
13.368,1.198
13.372,1.058
13.376,0.815
13.380,0.463
13.384,0.037
13.388,-0.512
13.392,-1.077
13.396,-1.573
13.400,-1.927
13.404,-2.138
13.408,-2.143
13.412,-2.013
13.416,-1.760
13.420,-1.413
13.424,-0.973
13.428,-0.430
13.432,0.142
13.436,0.632
13.440,1.218
13.444,1.062
13.448,0.830
13.452,0.497
13.456,0.058
13.460,-0.500
13.464,-1.073
13.468,-1.583
13.472,-1.952
13.476,-2.152
13.480,-2.178
13.484,-2.035
13.488,-1.792
13.492,-1.452
13.496,-1.008
13.500,-0.453
13.504,0.128
13.508,0.618
13.512,0.980
13.516,1.183
13.520,1.048
13.524,0.477
13.528,0.048
13.532,-0.512
13.536,-1.097
13.540,-1.613
13.544,-1.975
13.548,-2.172
13.552,-2.188
13.556,-2.058
13.560,-1.802
13.564,-1.448
13.568,-1.002
13.572,-0.453
13.576,0.130
13.580,0.623
13.584,0.993
13.588,1.198
13.592,1.228
13.596,1.097
13.600,0.432
13.604,0.068
13.608,-0.497
13.612,-1.073
13.616,-1.580
13.620,-1.948
13.624,-2.145
13.628,-2.167
13.632,-2.025
13.636,-1.782
13.640,-1.442
13.644,-0.993
13.648,-0.450
13.652,0.117
13.656,0.608
13.660,0.953
13.664,1.153
13.668,1.177
13.672,1.048
13.676,0.782
13.680,-0.072
13.684,-0.540
13.688,-1.123
13.692,-1.613
13.696,-1.970
13.700,-2.165
13.704,-2.183
13.708,-2.045
13.712,-1.788
13.716,-1.450
13.720,-0.993
13.724,-0.438
13.728,0.138
13.732,0.632
13.736,0.998
13.740,1.190
13.744,1.198
13.748,1.052
13.752,0.787
13.756,0.448
13.760,-0.652
13.764,-1.133
13.768,-1.627
13.772,-1.978
13.776,-2.172
13.780,-2.180
13.784,-2.035
13.788,-1.782
13.792,-1.440
13.796,-0.985
13.800,-0.432
13.804,0.142
13.808,0.625
13.812,0.983
13.816,1.177
13.820,1.192
13.824,1.060
13.828,0.818
13.832,0.460
13.836,0.028
13.840,-1.212
13.844,-1.620
13.848,-1.975
13.852,-2.163
13.856,-2.167
13.860,-2.013
13.864,-1.748
13.868,-1.390
13.872,-0.940
13.876,-0.395
13.880,0.180
13.884,0.667
13.888,1.022
13.892,1.210
13.896,1.228
13.900,1.090
13.904,0.830
13.908,0.495
13.912,0.050
13.916,-0.522
13.920,-1.670
13.924,-1.968
13.928,-2.170
13.932,-2.188
13.936,-2.047
13.940,-1.790
13.944,-1.448
13.948,-0.988
13.952,-0.432
13.956,0.133
13.960,0.627
13.964,0.988
13.968,1.183
13.972,1.198
13.976,1.060
13.980,0.823
13.984,0.475
13.988,0.058
13.992,-0.537
13.996,-1.075
14.000,-1.978
14.004,-2.123
14.008,-2.143
14.012,-2.007
14.016,-1.762
14.020,-1.407
14.024,-0.968
14.028,-0.412
14.032,0.158
14.036,0.655
14.040,1.012
14.044,1.198
14.048,1.220
14.052,1.073
14.056,0.820
14.060,0.460
14.064,0.020
14.068,-0.542
14.072,-1.127
14.076,-1.623
14.080,-2.180
14.084,-2.175
14.088,-2.027
14.092,-1.778
14.096,-1.423
14.100,-0.980
14.104,-0.417
14.108,0.142
14.112,0.625
14.116,0.988
14.120,1.188
14.124,1.198
14.128,1.050
14.132,0.790
14.136,0.453
14.140,0.022
14.144,-0.532
14.148,-1.103
14.152,-1.607
14.156,-1.955
14.160,-2.143
14.164,-1.762
14.168,-1.407
14.172,-0.968
14.176,-0.412
14.180,0.175
14.184,0.665
14.188,1.012
14.192,1.212
14.196,1.228
14.200,1.077
14.204,0.823
14.208,0.468
14.212,0.037
14.216,-0.542
14.220,-1.107
14.224,-1.617
14.228,-1.968
14.232,-2.147
14.236,-2.150
14.240,-1.698
14.244,-1.308
14.248,-0.895
14.252,-0.352
14.256,0.295
14.260,0.695
14.264,1.018
14.268,1.208
14.272,1.210
14.276,1.062
14.280,0.790
14.284,0.450
14.288,-0.007
14.292,-0.562
14.296,-1.137
14.300,-1.630
14.304,-1.978
14.308,-2.147
14.312,-2.170
14.316,-2.022
14.320,-1.347
14.324,-0.968
14.328,-0.410
14.332,0.170
14.336,0.660
14.340,1.005
14.344,1.198
14.348,1.208
14.352,1.062
14.356,0.782
14.360,0.448
14.364,0.018
14.368,-0.547
14.372,-1.123
14.376,-1.617
14.380,-1.980
14.384,-2.147
14.388,-2.152
14.392,-2.018
14.396,-1.742
14.400,-0.770
14.404,-0.372
14.408,0.233
14.412,0.670
14.416,1.020
14.420,1.208
14.424,1.210
14.428,1.062
14.432,0.797
14.436,0.458
14.440,0.028
14.444,-0.540
14.448,-1.113
14.452,-1.627
14.456,-1.978
14.460,-2.167
14.464,-2.180
14.468,-2.047
14.472,-1.785
14.476,-1.423
14.480,-0.328
14.484,0.170
14.488,0.660
14.492,1.010
14.496,1.205
14.500,1.215
14.504,1.062
14.508,0.787
14.512,0.458
14.516,0.022
14.520,-0.527
14.524,-1.093
14.528,-1.577
14.532,-1.930
14.536,-2.107
14.540,-2.123
14.544,-1.982
14.548,-1.722
14.552,-1.387
14.556,-0.938
14.560,0.268
14.564,0.667
14.568,1.018
14.572,1.212
14.576,1.218
14.580,1.073
14.584,0.812
14.588,0.460
14.592,0.018
14.596,-0.547
14.600,-1.125
14.604,-1.613
14.608,-1.952
14.612,-2.140
14.616,-2.145
14.620,-2.010
14.624,-1.738
14.628,-1.393
14.632,-0.940
14.636,-0.393
14.640,0.720
14.644,1.048
14.648,1.188
14.652,1.183
14.656,1.050
14.660,0.777
14.664,0.432
14.668,-0.020
14.672,-0.578
14.676,-1.143
14.680,-1.633
14.684,-1.975
14.688,-2.163
14.692,-2.178
14.696,-2.042
14.700,-1.780
14.704,-1.420
14.708,-0.970
14.712,-0.410
14.716,0.170
14.720,1.067
14.724,1.212
14.728,1.225
14.732,1.077
14.736,0.812
14.740,0.458
14.744,-0.010
14.748,-0.570
14.752,-1.147
14.756,-1.643
14.760,-1.988
14.764,-2.178
14.768,-2.178
14.772,-2.035
14.776,-1.770
14.780,-1.413
14.784,-0.968
14.788,-0.410
14.792,0.158
14.796,0.660
14.800,1.183
14.804,1.157
14.808,1.028
14.812,0.757
14.816,0.422
14.820,-0.028
14.824,-0.583
14.828,-1.145
14.832,-1.630
14.836,-1.978
14.840,-2.147
14.844,-2.143
14.848,-1.988
14.852,-1.712
14.856,-1.373
14.860,-0.912
14.864,-0.372
14.868,0.203
14.872,0.688
14.876,1.028
14.880,1.192
14.884,1.058
14.888,0.780
14.892,0.435
14.896,-0.028
14.900,-0.588
14.904,-1.163
14.908,-1.653
14.912,-1.995
14.916,-2.180
14.920,-2.185
14.924,-2.033
14.928,-1.772
14.932,-1.407
14.936,-0.948
14.940,-0.393
14.944,0.182
14.948,0.667
14.952,1.010
14.956,1.192
14.960,1.018
14.964,0.435
14.968,-0.013
14.972,-0.565
14.976,-1.143
14.980,-1.633
14.984,-1.980
14.988,-2.167
14.992,-2.167
14.996,-2.027
15.000,-1.748
15.004,-1.403
15.008,-0.943
15.012,-0.393
15.016,0.180
15.020,0.662
15.024,1.008
15.028,1.188
15.032,1.192
15.036,1.052
15.040,0.372
15.044,-0.018
15.048,-0.573
15.052,-1.140
15.056,-1.635
15.060,-1.972
15.064,-2.152
15.068,-2.167
15.072,-2.013
15.076,-1.740
15.080,-1.393
15.084,-0.938
15.088,-0.383
15.092,0.188
15.096,0.667
15.100,1.018
15.104,1.188
15.108,1.192
15.112,1.050
15.116,0.760
15.120,-0.122
15.124,-0.593
15.128,-1.170
15.132,-1.653
15.136,-1.992
15.140,-2.172
15.144,-2.172
15.148,-2.022
15.152,-1.710
15.156,-1.377
15.160,-0.927
15.164,-0.380
15.168,0.210
15.172,0.677
15.176,1.025
15.180,1.208
15.184,1.210
15.188,1.058
15.192,0.782
15.196,0.430
15.200,-0.665
15.204,-1.137
15.208,-1.630
15.212,-1.970
15.216,-2.147
15.220,-2.152
15.224,-2.010
15.228,-1.745
15.232,-1.407
15.236,-0.945
15.240,-0.393
15.244,0.177
15.248,0.662
15.252,1.018
15.256,1.198
15.260,1.208
15.264,1.058
15.268,0.777
15.272,0.430
15.276,-0.030
15.280,-1.238
15.284,-1.657
15.288,-2.002
15.292,-2.180
15.296,-2.183
15.300,-2.042
15.304,-1.778
15.308,-1.425
15.312,-0.973
15.316,-0.415
15.320,0.158
15.324,0.627
15.328,0.988
15.332,1.167
15.336,1.177
15.340,1.028
15.344,0.752
15.348,0.417
15.352,-0.048
15.356,-0.593
15.360,-1.708
15.364,-1.982
15.368,-2.165
15.372,-2.152
15.376,-2.007
15.380,-1.722
15.384,-1.383
15.388,-0.922
15.392,-0.372
15.396,0.198
15.400,0.672
15.404,1.022
15.408,1.208
15.412,1.212
15.416,1.062
15.420,0.782
15.424,0.422
15.428,-0.030
15.432,-0.585
15.436,-1.167
15.440,-2.013
15.444,-2.150
15.448,-2.143
15.452,-1.990
15.456,-1.728
15.460,-1.375
15.464,-0.925
15.468,-0.378
15.472,0.193
15.476,0.672
15.480,1.012
15.484,1.188
15.488,1.188
15.492,1.022
15.496,0.748
15.500,0.405
15.504,-0.052
15.508,-0.608
15.512,-1.173
15.516,-1.653
15.520,-2.165
15.524,-2.140
15.528,-1.988
15.532,-1.725
15.536,-1.363
15.540,-0.907
15.544,-0.328
15.548,0.215
15.552,0.698
15.556,1.030
15.560,1.215
15.564,1.218
15.568,1.062
15.572,0.785
15.576,-0.113
15.580,-0.580
15.584,-1.153
15.588,-1.643
15.592,-1.978
15.596,-2.143
15.600,-1.948
15.604,-1.367
15.608,-0.907
15.612,-0.367
15.616,0.312
15.620,0.677
15.624,1.015
15.628,1.188
15.632,1.183
15.636,1.030
15.640,0.770
15.644,0.417
15.648,-0.048
15.652,-0.608
15.656,-1.167
15.660,-1.657
15.664,-1.988
15.668,-2.165
15.672,-2.160
15.676,-2.007
15.680,-1.323
15.684,-0.365
15.688,0.210
15.692,0.690
15.696,1.025
15.700,1.208
15.704,1.208
15.708,1.058
15.712,0.782
15.716,0.438
15.720,-0.018
15.724,-0.568
15.728,-1.147
15.732,-1.630
15.736,-1.970
15.740,-2.135
15.744,-2.132
15.748,-1.980
15.752,-1.712
15.756,-1.363
15.760,-0.253
15.764,0.212
15.768,0.688
15.772,1.022
15.776,1.198
15.780,1.190
15.784,1.032
15.788,0.752
15.792,0.395
15.796,-0.055
15.800,-0.618
15.804,-1.185
15.808,-1.667
15.812,-2.002
15.816,-2.178
15.820,-2.150
15.824,-1.988
15.828,-1.712
15.832,-1.350
15.836,-0.892
15.840,0.302
15.844,0.698
15.848,1.028
15.852,1.208
15.856,1.195
15.860,1.050
15.864,0.772
15.868,0.417
15.872,-0.045
15.876,-0.605
15.880,-1.175
15.884,-1.647
15.888,-1.980
15.892,-2.143
15.896,-2.132
15.900,-1.972
15.904,-1.698
15.908,-1.330
15.912,-0.863
15.916,-0.302
15.920,0.792
15.924,1.077
15.928,1.228
15.932,1.212
15.936,1.050
15.940,0.770
15.944,0.398
15.948,-0.070
15.952,-0.613
15.956,-1.175
15.960,-1.657
15.964,-1.982
15.968,-2.143
15.972,-2.127
15.976,-1.972
15.980,-1.698
15.984,-1.330
15.988,-0.870
15.992,-0.323
15.996,0.258
16.000,1.100
16.004,1.225
16.008,1.212
16.012,1.058
16.016,0.777
16.020,0.412
16.024,-0.060
16.028,-0.623
16.032,-1.192
16.036,-1.667
16.040,-1.992
16.044,-2.165
16.048,-2.147
16.052,-1.988
16.056,-1.712
16.060,-1.363
16.064,-0.897
16.068,-0.347
16.072,0.217
16.076,0.688
16.080,1.183
16.084,1.163
16.088,1.002
16.092,0.718
16.096,0.372
16.100,-0.090
16.104,-0.657
16.108,-1.218
16.112,-1.692
16.116,-2.013
16.120,-2.175
16.124,-2.152
16.128,-1.982
16.132,-1.702
16.136,-1.343
16.140,-0.870
16.144,-0.323
16.148,0.247
16.152,0.708
16.156,1.035
16.160,1.170
16.164,1.008
16.168,0.718
16.172,0.378
16.176,-0.095
16.180,-0.652
16.184,-1.212
16.188,-1.692
16.192,-2.018
16.196,-2.172
16.200,-2.152
16.204,-1.985
16.208,-1.702
16.212,-1.337
16.216,-0.863
16.220,-0.302
16.224,0.268
16.228,0.733
16.232,1.058
16.236,1.222
16.240,1.018
16.244,0.777
16.248,0.415
16.252,-0.052
16.256,-0.618
16.260,-1.188
16.264,-1.673
16.268,-2.013
16.272,-2.172
16.276,-2.163
16.280,-1.990
16.284,-1.712
16.288,-1.350
16.292,-0.892
16.296,-0.328
16.300,0.247
16.304,0.718
16.308,1.040
16.312,1.210
16.316,1.188
16.320,0.703
16.324,-0.068
16.328,-0.623
16.332,-1.883
16.336,-2.170
16.340,-2.147
16.344,-1.982
16.348,-1.702
16.352,-1.343
16.356,-0.882
16.360,-0.323
16.364,0.253
16.368,0.713
16.372,1.048
16.376,1.208
16.380,1.188
16.384,1.032
16.388,0.748
16.392,0.383
16.396,-0.092
16.400,-1.320
16.404,-1.702
16.408,-2.033
16.412,-2.208
16.416,-2.192
16.420,-2.027
16.424,-1.742
16.428,-1.383
16.432,-0.920
16.436,-0.367
16.440,0.207
16.444,0.672
16.448,1.008
16.452,1.175
16.456,1.167
16.460,1.008
16.464,0.728
16.468,0.372
16.472,-0.098
16.476,-0.655
16.480,-1.748
16.484,-2.013
16.488,-2.170
16.492,-2.160
16.496,-1.982
16.500,-1.702
16.504,-1.357
16.508,-0.868
16.512,-0.323
16.516,0.258
16.520,0.720
16.524,1.067
16.528,1.208
16.532,1.195
16.536,1.018
16.540,0.748
16.544,0.383
16.548,-0.095
16.552,-0.652
16.556,-1.208
16.560,-2.045
16.564,-2.138
16.568,-1.948
16.572,-1.690
16.576,-1.333
16.580,-0.848
16.584,-0.290
16.588,0.278
16.592,0.748
16.596,1.070
16.600,1.232
16.604,1.222
16.608,1.058
16.612,0.777
16.616,0.430
16.620,-0.058
16.624,-0.613
16.628,-1.180
16.632,-1.650
16.636,-1.972
16.640,-2.103
16.644,-1.962
16.648,-1.680
16.652,-1.327
16.656,-0.853
16.660,-0.307
16.664,0.237
16.668,0.708
16.672,1.028
16.676,1.192
16.680,1.183
16.684,1.028
16.688,0.733
16.692,0.390
16.696,-0.090
16.700,-0.652
16.704,-1.210
16.708,-1.688
16.712,-2.007
16.716,-2.165
16.720,-1.933
16.724,-1.688
16.728,-1.327
16.732,-0.833
16.736,-0.282
16.740,0.278
16.744,0.743
16.748,1.062
16.752,1.222
16.756,1.212
16.760,1.040
16.764,0.770
16.768,0.407
16.772,-0.072
16.776,-0.647
16.780,-1.190
16.784,-1.667
16.788,-1.988
16.792,-2.150
16.796,-2.138
16.800,-1.643
16.804,-1.337
16.808,-0.860
16.812,-0.302
16.816,0.258
16.820,0.715
16.824,1.038
16.828,1.192
16.832,1.167
16.836,0.998
16.840,0.715
16.844,0.352
16.848,-0.133
16.852,-0.693
16.856,-1.248
16.860,-1.712
16.864,-2.033
16.868,-2.183
16.872,-2.167
16.876,-1.992
16.880,-1.265
16.884,-0.297
16.888,0.265
16.892,0.720
16.896,1.030
16.900,1.188
16.904,1.167
16.908,0.993
16.912,0.713
16.916,0.352
16.920,-0.133
16.924,-0.693
16.928,-1.238
16.932,-1.708
16.936,-2.022
16.940,-2.172
16.944,-2.138
16.948,-1.968
16.952,-1.673
16.956,-1.302
16.960,-0.043
16.964,0.343
16.968,0.767
16.972,1.080
16.976,1.230
16.980,1.208
16.984,1.032
16.988,0.740
16.992,0.383
16.996,-0.100
17.000,-0.670
17.004,-1.218
17.008,-1.692
17.012,-2.013
17.016,-2.172
17.020,-2.150
17.024,-1.992
17.028,-1.702
17.032,-1.347
17.036,-0.870
17.040,0.343
17.044,0.718
17.048,1.058
17.052,1.220
17.056,1.208
17.060,1.038
17.064,0.757
17.068,0.407
17.072,-0.138
17.076,-0.685
17.080,-1.208
17.084,-1.667
17.088,-1.988
17.092,-2.143
17.096,-2.120
17.100,-1.905
17.104,-1.667
17.108,-1.308
17.112,-0.828
17.116,-0.270
17.120,0.792
17.124,1.052
17.128,1.192
17.132,1.167
17.136,0.998
17.140,0.728
17.144,0.370
17.148,-0.125
17.152,-0.685
17.156,-1.248
17.160,-1.708
17.164,-2.027
17.168,-2.178
17.172,-2.152
17.176,-1.980
17.180,-1.692
17.184,-1.323
17.188,-0.840
17.192,-0.268
17.196,0.290
17.200,1.107
17.204,1.228
17.208,1.205
17.212,1.030
17.216,0.748
17.220,0.388
17.224,-0.102
17.228,-0.667
17.232,-1.228
17.236,-1.698
17.240,-2.013
17.244,-2.163
17.248,-2.127
17.252,-1.948
17.256,-1.660
17.260,-1.295
17.264,-0.807
17.268,-0.242
17.272,0.338
17.276,0.790
17.280,1.252
17.284,1.188
17.288,1.030
17.292,0.743
17.296,0.275
17.300,-0.762
17.304,-1.238
17.308,-1.702
17.312,-2.020
17.316,-2.172
17.320,-2.143
17.324,-1.978
17.328,-1.690
17.332,-1.325
17.336,-0.830
17.340,-0.263
17.344,0.295
17.348,0.752
17.352,1.070
17.356,1.222
17.360,0.993
17.364,0.748
17.368,0.385
17.372,-0.100
17.376,-0.662
17.380,-1.220
17.384,-1.695
17.388,-2.013
17.392,-2.167
17.396,-2.140
17.400,-1.968
17.404,-1.670
17.408,-1.302
17.412,-0.820
17.416,-0.260
17.420,0.295
17.424,0.748
17.428,1.067
17.432,1.210
17.436,1.188
17.440,0.688
17.444,0.365
17.448,-0.723
17.452,-1.208
17.456,-1.690
17.460,-1.980
17.464,-2.127
17.468,-2.107
17.472,-1.940
17.476,-1.655
17.480,-1.090
17.484,-0.247
17.488,0.378
17.492,0.757
17.496,1.073
17.500,1.222
17.504,1.192
17.508,1.022
17.512,0.738
17.516,0.378
17.520,-0.772
17.524,-1.238
17.528,-1.705
17.532,-2.018
17.536,-2.163
17.540,-2.132
17.544,-1.962
17.548,-1.667
17.552,-1.300
17.556,-0.818
17.560,-0.242
17.564,0.312
17.568,0.772
17.572,1.097
17.576,1.248
17.580,1.218
17.584,1.048
17.588,0.757
17.592,0.398
17.596,-0.087
17.600,-1.312
17.604,-1.745
17.608,-2.013
17.612,-2.147
17.616,-2.120
17.620,-1.948
17.624,-1.653
17.628,-1.268
17.632,-0.802
17.636,-0.212
17.640,0.343
17.644,0.787
17.648,1.100
17.652,1.238
17.656,1.208
17.660,1.030
17.664,0.740
17.668,0.372
17.672,-0.113
17.676,-0.705
17.680,-1.788
17.684,-2.058
17.688,-2.163
17.692,-2.127
17.696,-1.938
17.700,-1.647
17.704,-1.260
17.708,-0.780
17.712,-0.193
17.716,0.367
17.720,0.818
17.724,1.113
17.728,1.248
17.732,1.212
17.736,1.032
17.740,0.743
17.744,0.380
17.748,-0.102
17.752,-0.688
17.756,-1.238
17.760,-2.055
17.764,-2.167
17.768,-2.130
17.772,-1.952
17.776,-1.663
17.780,-1.298
17.784,-0.810
17.788,-0.233
17.792,0.312
17.796,0.770
17.800,1.093
17.804,1.232
17.808,1.208
17.812,1.022
17.816,0.740
17.820,0.383
17.824,-0.107
17.828,-0.688
17.832,-1.222
17.836,-1.688
17.840,-2.160
17.844,-2.132
17.848,-1.962
17.852,-1.683
17.856,-1.312
17.860,-0.843
17.864,-0.255
17.868,0.275
17.872,0.718
17.876,1.022
17.880,1.167
17.884,1.137
17.888,0.958
17.892,0.688
17.896,0.338
17.900,-0.142
17.904,-0.713
17.908,-1.250
17.912,-1.702
17.916,-2.018
17.920,-2.112
17.924,-1.617
17.928,-1.292
17.932,-0.823
17.936,-0.258
17.940,0.287
17.944,0.730
17.948,1.052
17.952,1.173
17.956,1.117
17.960,0.955
17.964,0.688
17.968,0.312
17.972,-0.168
17.976,-0.738
17.980,-1.300
17.984,-1.742
17.988,-2.042
17.992,-2.178
17.996,-2.138
18.000,-1.613
18.004,-1.295
18.008,-0.818
18.012,-0.242
18.016,0.310
18.020,0.757
18.024,1.073
18.028,1.210
18.032,1.177
18.036,1.008
18.040,0.635
18.044,0.340
18.048,-0.138
18.052,-0.723
18.056,-1.260
18.060,-1.722
18.064,-2.025
18.068,-2.170
18.072,-2.138
18.076,-1.962
18.080,-1.208
18.084,-0.802
18.088,-0.217
18.092,0.340
18.096,0.787
18.100,1.095
18.104,1.230
18.108,1.192
18.112,1.020
18.116,0.738
18.120,0.370
18.124,-0.125
18.128,-0.703
18.132,-1.242
18.136,-1.708
18.140,-2.022
18.144,-2.165
18.148,-2.127
18.152,-1.952
18.156,-1.665
18.160,-0.713
18.164,0.380
18.168,0.767
18.172,1.070
18.176,1.212
18.180,1.173
18.184,0.983
18.188,0.688
18.192,0.312
18.196,-0.175
18.200,-0.748
18.204,-1.298
18.208,-1.738
18.212,-2.045
18.216,-2.178
18.220,-2.132
18.224,-1.948
18.228,-1.630
18.232,-1.285
18.236,-0.787
18.240,0.425
18.244,0.785
18.248,1.107
18.252,1.232
18.256,1.198
18.260,1.022
18.264,0.733
18.268,0.367
18.272,-0.113
18.276,-0.710
18.280,-1.250
18.284,-1.712
18.288,-2.022
18.292,-2.152
18.296,-2.138
18.300,-1.962
18.304,-1.673
18.308,-1.302
18.312,-0.818
18.316,-0.242
18.320,0.828
18.324,1.077
18.328,1.218
18.332,1.173
18.336,0.985
18.340,0.718
18.344,0.355
18.348,-0.133
18.352,-0.723
18.356,-1.258
18.360,-1.708
18.364,-2.022
18.368,-2.160
18.372,-2.125
18.376,-1.950
18.380,-1.663
18.384,-1.292
18.388,-0.802
18.392,-0.223
18.396,0.338
18.400,1.113
18.404,1.218
18.408,1.173
18.412,0.993
18.416,0.695
18.420,0.318
18.424,-0.163
18.428,-0.748
18.432,-1.312
18.436,-1.762
18.440,-2.058
18.444,-2.188
18.448,-2.152
18.452,-1.970
18.456,-1.667
18.460,-1.292
18.464,-0.782
18.468,-0.210
18.472,0.407
18.476,0.785
18.480,1.220
18.484,0.953
18.488,0.672
18.492,0.292
18.496,-0.163
18.500,-0.745
18.504,-1.292
18.508,-1.735
18.512,-2.027
18.516,-2.163
18.520,-2.112
18.524,-1.933
18.528,-1.633
18.532,-1.252
18.536,-0.772
18.540,-0.217
18.544,0.333
18.548,0.770
18.552,1.070
18.556,1.198
18.560,0.930
18.564,0.268
18.568,-0.188
18.572,-0.772
18.576,-1.327
18.580,-1.772
18.584,-2.058
18.588,-2.185
18.592,-2.145
18.596,-1.950
18.600,-1.660
18.604,-1.262
18.608,-0.745
18.612,-0.200
18.616,0.362
18.620,0.792
18.624,1.097
18.628,1.232
18.632,1.198
18.636,1.022
18.640,0.287
18.644,-0.128
18.648,-0.703
18.652,-1.268
18.656,-1.732
18.660,-2.033
18.664,-2.172
18.668,-2.132
18.672,-1.960
18.676,-1.657
18.680,-1.268
18.684,-0.782
18.688,-0.220
18.692,0.343
18.696,0.777
18.700,1.087
18.704,1.222
18.708,1.192
18.712,1.022
18.716,0.728
18.720,-0.228
18.724,-1.298
18.728,-1.732
18.732,-2.080
18.736,-2.188
18.740,-2.140
18.744,-1.972
18.748,-1.670
18.752,-1.300
18.756,-0.802
18.760,-0.223
18.764,0.352
18.768,0.782
18.772,1.087
18.776,1.228
18.780,1.175
18.784,0.938
18.788,0.688
18.792,0.343
18.796,-0.165
18.800,-1.377
18.804,-2.053
18.808,-2.183
18.812,-2.140
18.816,-1.968
18.820,-1.665
18.824,-1.292
18.828,-0.787
18.832,-0.215
18.836,0.355
18.840,0.787
18.844,1.090
18.848,1.218
18.852,1.177
18.856,0.993
18.860,0.698
18.864,0.312
18.868,-0.175
18.872,-0.762
18.876,-1.335
18.880,-2.103
18.884,-2.127
18.888,-1.952
18.892,-1.653
18.896,-1.255
18.900,-0.765
18.904,-0.193
18.908,0.372
18.912,0.823
18.916,1.107
18.920,1.248
18.924,1.195
18.928,1.008
18.932,0.705
18.936,0.340
18.940,-0.168
18.944,-0.738
18.948,-1.305
18.952,-1.745
18.956,-2.035
18.960,-2.107
18.964,-1.950
18.968,-1.657
18.972,-1.292
18.976,-0.807
18.980,-0.242
18.984,0.338
18.988,0.787
18.992,1.070
18.996,1.192
19.000,1.153
19.004,0.960
19.008,0.688
19.012,0.292
19.016,-0.177
19.020,-0.752
19.024,-1.325
19.028,-1.768
19.032,-2.055
19.036,-2.183
19.040,-1.897
19.044,-1.643
19.048,-1.242
19.052,-0.752
19.056,-0.182
19.060,0.378
19.064,0.797
19.068,1.097
19.072,1.228
19.076,1.180
19.080,0.985
19.084,0.682
19.088,0.302
19.092,-0.193
19.096,-0.772
19.100,-1.337
19.104,-1.780
19.108,-2.065
19.112,-2.183
19.116,-2.132
19.120,-1.573
19.124,-1.173
19.128,-0.713
19.132,-0.142
19.136,0.388
19.140,0.828
19.144,1.107
19.148,1.228
19.152,1.177
19.156,0.975
19.160,0.667
19.164,0.275
19.168,-0.217
19.172,-0.807
19.176,-1.365
19.180,-1.802
19.184,-2.100
19.188,-2.215
19.192,-2.163
19.196,-1.968
19.200,-1.188
19.204,-0.733
19.208,-0.087
19.212,0.815
19.216,1.090
19.220,1.210
19.224,1.155
19.228,0.960
19.232,0.675
19.236,0.300
19.240,-0.193
19.244,-0.762
19.248,-1.333
19.252,-1.770
19.256,-2.053
19.260,-2.165
19.264,-2.123
19.268,-1.938
19.272,-1.633
19.276,-1.248
19.280,-0.100
19.284,0.787
19.288,1.077
19.292,1.208
19.296,1.173
19.300,0.958
19.304,0.667
19.308,0.292
19.312,-0.203
19.316,-0.777
19.320,-1.343
19.324,-1.778
19.328,-2.065
19.332,-2.192
19.336,-2.143
19.340,-1.952
19.344,-1.657
19.348,-1.262
19.352,-0.762
19.356,-0.188
19.360,0.863
19.364,1.100
19.368,1.222
19.372,1.173
19.376,0.978
19.380,0.670
19.384,0.287
19.388,-0.207
19.392,-0.802
19.396,-1.353
19.400,-1.775
19.404,-2.058
19.408,-2.178
19.412,-2.135
19.416,-1.940
19.420,-1.647
19.424,-1.252
19.428,-0.762
19.432,-0.203
19.436,0.370
19.440,1.137
19.444,1.222
19.448,1.177
19.452,0.993
19.456,0.700
19.460,0.320
19.464,-0.177
19.468,-0.752
19.472,-1.327
19.476,-1.768
19.480,-2.053
19.484,-2.167
19.488,-2.107
19.492,-1.923
19.496,-1.617
19.500,-1.225
19.504,-0.733
19.508,-0.168
19.512,0.385
19.516,0.815
19.520,1.225
19.524,1.173
19.528,0.980
19.532,0.677
19.536,0.292
19.540,-0.207
19.544,-0.777
19.548,-1.347
19.552,-1.780
19.556,-2.053
19.560,-2.175
19.564,-2.115
19.568,-1.903
19.572,-1.607
19.576,-1.215
19.580,-0.657
19.584,-0.133
19.588,0.425
19.592,0.868
19.596,1.173
19.600,1.188
19.604,0.978
19.608,0.688
19.612,0.300
19.616,-0.200
19.620,-0.777
19.624,-1.343
19.628,-1.772
19.632,-2.050
19.636,-2.170
19.640,-2.103
19.644,-1.925
19.648,-1.625
19.652,-1.232
19.656,-0.738
19.660,-0.177
19.664,0.375
19.668,0.797
19.672,1.097
19.676,1.208
19.680,0.915
19.684,0.660
19.688,0.278
19.692,-0.220
19.696,-0.807
19.700,-1.365
19.704,-1.808
19.708,-2.092
19.712,-2.188
19.716,-2.132
19.720,-1.933
19.724,-1.623
19.728,-1.230
19.732,-0.733
19.736,-0.175
19.740,0.378
19.744,0.820
19.748,1.103
19.752,1.228
19.756,1.173
19.760,0.618
19.764,0.292
19.768,-0.210
19.772,-0.782
19.776,-1.333
19.780,-1.782
19.784,-2.058
19.788,-2.172
19.792,-2.112
19.796,-1.927
19.800,-1.617
19.804,-1.228
19.808,-0.735
19.812,-0.170
19.816,0.388
19.820,0.833
19.824,1.107
19.828,1.222
19.832,1.173
19.836,0.988
19.840,0.228
19.844,-0.200
19.848,-0.772
19.852,-1.337
19.856,-1.778
19.860,-2.062
19.864,-2.178
19.868,-2.130
19.872,-1.933
19.876,-1.633
19.880,-1.232
19.884,-0.738
19.888,-0.165
19.892,0.393
19.896,0.828
19.900,1.103
19.904,1.218
19.908,1.157
19.912,0.955
19.916,0.665
19.920,-0.323
19.924,-0.807
19.928,-1.347
19.932,-1.792
19.936,-2.067
19.940,-2.183
19.944,-2.132
19.948,-1.950
19.952,-1.650
19.956,-1.260
19.960,-0.767
19.964,-0.203
19.968,0.352
19.972,0.787
19.976,1.085
19.980,1.212
19.984,1.157
19.988,0.978
19.992,0.677
19.996,0.310
20.000,-0.865
20.004,-1.333
20.008,-1.780
20.012,-2.060
20.016,-2.167
20.020,-2.123
20.024,-1.927
20.028,-1.617
20.032,-1.212
20.036,-0.713
20.040,-0.145
20.044,0.388
20.048,0.833
20.052,1.107
20.056,1.222
20.060,1.167
20.064,0.958
20.068,0.662
20.072,0.273
20.076,-0.220
20.080,-1.468
20.084,-2.123
20.088,-2.195
20.092,-2.132
20.096,-1.940
20.100,-1.627
20.104,-1.238
20.108,-0.735
20.112,-0.170
20.116,0.390
20.120,0.833
20.124,1.107
20.128,1.225
20.132,1.177
20.136,0.988
20.140,0.693
20.144,0.312
20.148,-0.207
20.152,-0.777
20.156,-1.335
20.160,-2.098
20.164,-2.183
20.168,-2.112
20.172,-1.933
20.176,-1.627
20.180,-1.232
20.184,-0.740
20.188,-0.172
20.192,0.383
20.196,0.823
20.200,1.103
20.204,1.218
20.208,1.165
20.212,0.958
20.216,0.662
20.220,0.268
20.224,-0.225
20.228,-0.812
20.232,-1.350
20.236,-1.782
20.240,-2.165
20.244,-2.107
20.248,-1.905
20.252,-1.607
20.256,-1.202
20.260,-0.708
20.264,-0.138
20.268,0.410
20.272,0.860
20.276,1.135
20.280,1.245
20.284,1.188
20.288,0.993
20.292,0.688
20.296,0.297
20.300,-0.215
20.304,-0.807
20.308,-1.363
20.312,-1.812
20.316,-2.090
20.320,-2.107
20.324,-1.930
20.328,-1.623
20.332,-1.228
20.336,-0.728
20.340,-0.147
20.344,0.407
20.348,0.848
20.352,1.133
20.356,1.240
20.360,1.183
20.364,0.990
20.368,0.688
20.372,0.292
20.376,-0.217
20.380,-0.802
20.384,-1.343
20.388,-1.792
20.392,-2.062
20.396,-2.172
20.400,-1.855
20.404,-1.585
20.408,-1.163
20.412,-0.642
20.416,-0.045
20.420,0.463
20.424,0.853
20.428,1.117
20.432,1.232
20.436,1.173
20.440,0.958
20.444,0.657
20.448,0.268
20.452,-0.242
20.456,-0.823
20.460,-1.383
20.464,-1.815
20.468,-2.103
20.472,-2.208
20.476,-2.145
20.480,-1.577
20.484,-1.252
20.488,-0.743
20.492,-0.177
20.496,0.378
20.500,0.797
20.504,1.087
20.508,1.198
20.512,1.137
20.516,0.932
20.520,0.620
20.524,0.237
20.528,-0.270
20.532,-0.853
20.536,-1.423
20.540,-1.823
20.544,-2.105
20.548,-2.203
20.552,-2.145
20.556,-1.960
20.560,-1.177
20.564,-0.667
20.568,-0.170
20.572,0.378
20.576,0.818
20.580,1.095
20.584,1.212
20.588,1.153
20.592,0.945
20.596,0.635
20.600,0.260
20.604,-0.245
20.608,-0.818
20.612,-1.363
20.616,-1.792
20.620,-2.067
20.624,-2.175
20.628,-2.112
20.632,-1.905
20.636,-1.603
20.640,-0.608
20.644,-0.115
20.648,0.422
20.652,0.855
20.656,1.135
20.660,1.238
20.664,1.180
20.668,0.990
20.672,0.688
20.676,0.302
20.680,-0.207
20.684,-0.777
20.688,-1.337
20.692,-1.768
20.696,-2.047
20.700,-2.150
20.704,-2.100
20.708,-1.895
20.712,-1.580
20.716,-1.192
20.720,-0.033
20.724,0.422
20.728,0.850
20.732,1.117
20.736,1.230
20.740,1.177
20.744,0.973
20.748,0.667
20.752,0.278
20.756,-0.223
20.760,-0.807
20.764,-1.347
20.768,-1.778
20.772,-2.062
20.776,-2.167
20.780,-2.103
20.784,-1.907
20.788,-1.607
20.792,-1.215
20.796,-0.713
20.800,0.492
20.804,1.117
20.808,1.210
20.812,1.145
20.816,0.940
20.820,0.627
20.824,0.253
20.828,-0.253
20.832,-0.818
20.836,-1.363
20.840,-1.785
20.844,-2.058
20.848,-2.150
20.852,-2.090
20.856,-1.873
20.860,-1.565
20.864,-1.177
20.868,-0.682
20.872,-0.100
20.876,0.435
20.880,1.155
20.884,1.157
20.888,0.948
20.892,0.632
20.896,0.253
20.900,-0.258
20.904,-0.843
20.908,-1.380
20.912,-1.808
20.916,-2.085
20.920,-2.175
20.924,-2.110
20.928,-1.897
20.932,-1.583
20.936,-1.188
20.940,-0.688
20.944,-0.092
20.948,0.427
20.952,0.855
20.956,1.133
20.960,1.137
20.964,0.892
20.968,0.623
20.972,0.233
20.976,-0.270
20.980,-0.858
20.984,-1.407
20.988,-1.820
20.992,-2.103
20.996,-2.195
21.000,-2.130
21.004,-1.933
21.008,-1.623
21.012,-1.228
21.016,-0.733
21.020,-0.163
21.024,0.380
21.028,0.812
21.032,1.093
21.036,1.192
21.040,0.900
21.044,0.637
21.048,0.258
21.052,-0.260
21.056,-0.833
21.060,-1.383
21.064,-1.817
21.068,-2.092
21.072,-2.188
21.076,-2.127
21.080,-1.923
21.084,-1.607
21.088,-1.212
21.092,-0.700
21.096,-0.133
21.100,0.410
21.104,0.833
21.108,1.107
21.112,1.208
21.116,1.147
21.120,0.575
21.124,0.217
21.128,-0.362
21.132,-0.848
21.136,-1.403
21.140,-1.863
21.144,-2.123
21.148,-2.208
21.152,-2.140
21.156,-1.938
21.160,-1.623
21.164,-1.218
21.168,-0.708
21.172,-0.128
21.176,0.412
21.180,0.848
21.184,1.117
21.188,1.222
21.192,1.153
21.196,0.948
21.200,0.177
21.204,-0.285
21.208,-0.868
21.212,-1.383
21.216,-1.812
21.220,-2.092
21.224,-2.180
21.228,-2.112
21.232,-1.900
21.236,-1.605
21.240,-1.202
21.244,-0.690
21.248,-0.105
21.252,0.427
21.256,0.863
21.260,1.147
21.264,1.238
21.268,1.177
21.272,0.960
21.276,0.662
21.280,-0.333
21.284,-0.823
21.288,-1.373
21.292,-1.802
21.296,-2.085
21.300,-2.178
21.304,-2.107
21.308,-1.883
21.312,-1.580
21.316,-1.190
21.320,-0.682
21.324,-0.102
21.328,0.438
21.332,0.868
21.336,1.147
21.340,1.248
21.344,1.185
21.348,0.980
21.352,0.670
21.356,0.268
21.360,-0.907
21.364,-1.373
21.368,-1.808
21.372,-2.092
21.376,-2.190
21.380,-2.127
21.384,-1.925
21.388,-1.603
21.392,-1.192
21.396,-0.690
21.400,-0.110
21.404,0.427
21.408,0.858
21.412,1.117
21.416,1.218
21.420,1.147
21.424,0.938
21.428,0.620
21.432,0.237
21.436,-0.270
21.440,-1.498
21.444,-1.883
21.448,-2.183
21.452,-2.123
21.456,-1.903
21.460,-1.603
21.464,-1.202
21.468,-0.695
21.472,-0.110
21.476,0.417
21.480,0.848
21.484,1.115
21.488,1.218
21.492,1.143
21.496,0.932
21.500,0.618
21.504,0.237
21.508,-0.270
21.512,-0.858
21.516,-1.390
21.520,-2.147
21.524,-2.092
21.528,-1.893
21.532,-1.573
21.536,-1.177
21.540,-0.662
21.544,-0.092
21.548,0.450
21.552,0.870
21.556,1.137
21.560,1.228
21.564,1.167
21.568,0.948
21.572,0.637
21.576,0.258
21.580,-0.258
21.584,-0.853
21.588,-1.403
21.592,-1.825
21.596,-2.123
21.600,-2.107
21.604,-1.927
21.608,-1.613
21.612,-1.202
21.616,-0.693
21.620,-0.110
21.624,0.432
21.628,0.863
21.632,1.137
21.636,1.222
21.640,1.157
21.644,0.943
21.648,0.652
21.652,0.250
21.656,-0.263
21.660,-0.850
21.664,-1.390
21.668,-1.820
21.672,-2.098
21.676,-2.185
21.680,-1.857
21.684,-1.603
21.688,-1.163
21.692,-0.682
21.696,-0.102
21.700,0.438
21.704,0.863
21.708,1.140
21.712,1.228
21.716,1.155
21.720,0.943
21.724,0.627
21.728,0.237
21.732,-0.273
21.736,-0.858
21.740,-1.393
21.744,-1.817
21.748,-2.092
21.752,-2.175
21.756,-2.107
21.760,-1.528
21.764,-1.188
21.768,-0.682
21.772,-0.100
21.776,0.438
21.780,0.868
21.784,1.140
21.788,1.230
21.792,1.153
21.796,0.938
21.800,0.623
21.804,0.230
21.808,-0.287
21.812,-0.870
21.816,-1.407
21.820,-1.823
21.824,-2.095
21.828,-2.175
21.832,-2.105
21.836,-1.887
21.840,-1.097
21.844,-0.043
21.848,0.463
21.852,0.870
21.856,1.143
21.860,1.230
21.864,1.165
21.868,0.948
21.872,0.635
21.876,0.255
21.880,-0.263
21.884,-0.843
21.888,-1.377
21.892,-1.795
21.896,-2.053
21.900,-2.150
21.904,-2.080
21.908,-1.863
21.912,-1.552
21.916,-1.165
21.920,0.028
21.924,0.460
21.928,0.873
21.932,1.143
21.936,1.230
21.940,1.153
21.944,0.932
21.948,0.613
21.952,0.217
21.956,-0.323
21.960,-0.897
21.964,-1.448
21.968,-1.860
21.972,-2.132
21.976,-2.210
21.980,-2.132
21.984,-1.903
21.988,-1.577
21.992,-1.177
21.996,-0.657
22.000,0.550
22.004,0.887
22.008,1.163
22.012,1.252
22.016,1.175
22.020,0.948
22.024,0.627
22.028,0.233
22.032,-0.287
22.036,-0.873
22.040,-1.413
22.044,-1.823
22.048,-2.092
22.052,-2.172
22.056,-2.092
22.060,-1.885
22.064,-1.552
22.068,-1.163
22.072,-0.657
22.076,-0.090
22.080,0.907
22.084,1.115
22.088,1.208
22.092,1.140
22.096,0.917
22.100,0.593
22.104,0.212
22.108,-0.302
22.112,-0.887
22.116,-1.420
22.120,-1.845
22.124,-2.103
22.128,-2.188
22.132,-2.123
22.136,-1.890
22.140,-1.567
22.144,-1.153
22.148,-0.627
22.152,-0.058
22.156,0.477
22.160,1.198
22.164,1.177
22.168,0.973
22.172,0.660
22.176,0.253
22.180,-0.268
22.184,-0.863
22.188,-1.410
22.192,-1.827
22.196,-2.100
22.200,-2.185
22.204,-2.112
22.208,-1.897
22.212,-1.580
22.216,-1.173
22.220,-0.652
22.224,-0.068
22.228,0.475
22.232,0.892
22.236,1.165
22.240,1.155
22.244,0.960
22.248,0.657
22.252,0.258
22.256,-0.265
22.260,-0.853
22.264,-1.385
22.268,-1.812
22.272,-2.083
22.276,-2.178
22.280,-2.103
22.284,-1.890
22.288,-1.573
22.292,-1.175
22.296,-0.662
22.300,-0.083
22.304,0.463
22.308,0.892
22.312,1.150
22.316,1.232
22.320,0.887
22.324,0.613
22.328,0.212
22.332,-0.300
22.336,-0.887
22.340,-1.423
22.344,-1.843
22.348,-2.107
22.352,-2.188
22.356,-2.123
22.360,-1.897
22.364,-1.577
22.368,-1.170
22.372,-0.652
22.376,-0.068
22.380,0.472
22.384,0.892
22.388,1.157
22.392,1.238
22.396,1.163
22.400,0.568
22.404,0.223
22.408,-0.297
22.412,-0.887
22.416,-1.427
22.420,-1.843
22.424,-2.103
22.428,-2.185
22.432,-2.107
22.436,-1.887
22.440,-1.562
22.444,-1.160
22.448,-0.647
22.452,-0.060
22.456,0.468
22.460,0.887
22.464,1.167
22.468,1.232
22.472,1.165
22.476,0.940
22.480,0.152
22.484,-0.973
22.488,-1.407
22.492,-1.840
22.496,-2.092
22.500,-2.180
22.504,-2.103
22.508,-1.893
22.512,-1.573
22.516,-1.175
22.520,-0.652
22.524,-0.070
22.528,0.468
22.532,0.890
22.536,1.147
22.540,1.225
22.544,1.145
22.548,0.927
22.552,0.610
22.556,0.210
22.560,-1.002
22.564,-1.550
22.568,-1.887
22.572,-2.138
22.576,-2.220
22.580,-2.138
22.584,-1.907
22.588,-1.583
22.592,-1.180
22.596,-0.667
22.600,-0.087
22.604,0.453
22.608,0.868
22.612,1.117
22.616,1.198
22.620,1.110
22.624,0.902
22.628,0.580
22.632,0.188
22.636,-0.340
22.640,-1.540
22.644,-1.863
22.648,-2.123
22.652,-2.192
22.656,-2.110
22.660,-1.893
22.664,-1.573
22.668,-1.167
22.672,-0.650
22.676,-0.072
22.680,0.463
22.684,0.875
22.688,1.147
22.692,1.222
22.696,1.145
22.700,0.932
22.704,0.618
22.708,0.223
22.712,-0.297
22.716,-0.887
22.720,-1.883
22.724,-2.163
22.728,-2.083
22.732,-1.883
22.736,-1.577
22.740,-1.177
22.744,-0.662
22.748,-0.087
22.752,0.448
22.756,0.868
22.760,1.117
22.764,1.208
22.768,1.137
22.772,0.917
22.776,0.618
22.780,0.223
22.784,-0.297
22.788,-0.882
22.792,-1.417
22.796,-1.825
22.800,-2.167
22.804,-1.860
22.808,-1.542
22.812,-1.140
22.816,-0.618
22.820,-0.048
22.824,0.477
22.828,0.892
22.832,1.153
22.836,1.228
22.840,1.140
22.844,0.907
22.848,0.598
22.852,0.207
22.856,-0.302
22.860,-0.892
22.864,-1.452
22.868,-1.823
22.872,-2.083
22.876,-2.145
22.880,-1.802
22.884,-1.522
22.888,-1.085
22.892,-0.570
22.896,-0.043
22.900,0.492
22.904,0.948
22.908,1.170
22.912,1.238
22.916,1.153
22.920,0.940
22.924,0.627
22.928,0.230
22.932,-0.273
22.936,-0.863
22.940,-1.405
22.944,-1.823
22.948,-2.087
22.952,-2.170
22.956,-2.098
22.960,-1.508
22.964,-1.153
22.968,-0.642
22.972,-0.058
22.976,0.472
22.980,0.892
22.984,1.150
22.988,1.235
22.992,1.157
22.996,0.940
23.000,0.627
23.004,0.233
23.008,-0.285
23.012,-0.868
23.016,-1.397
23.020,-1.812
23.024,-2.083
23.028,-2.165
23.032,-2.083
23.036,-1.863
23.040,-1.067
23.044,-0.627
23.048,-0.058
23.052,0.470
23.056,0.885
23.060,1.143
23.064,1.218
23.068,1.135
23.072,0.912
23.076,0.593
23.080,0.193
23.084,-0.330
23.088,-0.910
23.092,-1.452
23.096,-1.860
23.100,-2.123
23.104,-2.190
23.108,-2.103
23.112,-1.873
23.116,-1.552
23.120,-0.542
23.124,-0.062
23.128,0.578
23.132,0.885
23.136,1.147
23.140,1.228
23.144,1.150
23.148,0.938
23.152,0.623
23.156,0.225
23.160,-0.292
23.164,-0.887
23.168,-1.417
23.172,-1.830
23.176,-2.090
23.180,-2.167
23.184,-2.083
23.188,-1.857
23.192,-1.532
23.196,-1.133
23.200,0.058
23.204,0.585
23.208,0.912
23.212,1.155
23.216,1.232
23.220,1.147
23.224,0.938
23.228,0.620
23.232,0.210
23.236,-0.297
23.240,-0.873
23.244,-1.413
23.248,-1.817
23.252,-2.087
23.256,-2.165
23.260,-2.083
23.264,-1.863
23.268,-1.542
23.272,-1.143
23.276,-0.642
23.280,0.542
23.284,0.870
23.288,1.137
23.292,1.215
23.296,1.133
23.300,0.912
23.304,0.598
23.308,0.207
23.312,-0.328
23.316,-0.897
23.320,-1.423
23.324,-1.827
23.328,-2.083
23.332,-2.147
23.336,-2.062
23.340,-1.850
23.344,-1.532
23.348,-1.123
23.352,-0.603
23.356,-0.030
23.360,0.978
23.364,1.177
23.368,1.252
23.372,1.157
23.376,0.938
23.380,0.608
23.384,0.198
23.388,-0.338
23.392,-0.912
23.396,-1.462
23.400,-1.863
23.404,-2.115
23.408,-2.188
23.412,-2.112
23.416,-1.887
23.420,-1.558
23.424,-1.153
23.428,-0.623
23.432,-0.052
23.436,0.492
23.440,1.180
23.444,1.232
23.448,1.140
23.452,0.917
23.456,0.557
23.460,0.193
23.464,-0.343
23.468,-0.930
23.472,-1.465
23.476,-1.867
23.480,-2.123
23.484,-2.183
23.488,-2.092
23.492,-1.860
23.496,-1.532
23.500,-1.123
23.504,-0.590
23.508,-0.013
23.512,0.527
23.516,0.932
23.520,1.260
23.524,0.948
23.528,0.627
23.532,0.228
23.536,-0.302
23.540,-0.892
23.544,-1.440
23.548,-1.847
23.552,-2.107
23.556,-2.192
23.560,-2.110
23.564,-1.890
23.568,-1.562
23.572,-1.150
23.576,-0.623
23.580,-0.048
23.584,0.497
23.588,0.897
23.592,1.153
23.596,1.230
23.600,0.840
23.604,0.512
23.608,0.152
23.612,-0.343
23.616,-0.973
23.620,-1.465
23.624,-1.855
23.628,-2.107
23.632,-2.178
23.636,-2.098
23.640,-1.873
23.644,-1.545
23.648,-1.153
23.652,-0.642
23.656,-0.068
23.660,0.463
23.664,0.865
23.668,1.133
23.672,1.210
23.676,1.110
23.680,0.512
23.684,0.172
23.688,-0.352
23.692,-0.927
23.696,-1.462
23.700,-1.857
23.704,-2.103
23.708,-2.178
23.712,-2.087
23.716,-1.860
23.720,-1.548
23.724,-1.143
23.728,-0.618
23.732,-0.050
23.736,0.472
23.740,0.873
23.744,1.117
23.748,1.198
23.752,1.103
23.756,0.887
23.760,0.092
23.764,-0.352
23.768,-0.930
23.772,-1.462
23.776,-1.870
23.780,-2.125
23.784,-2.192
23.788,-2.110
23.792,-1.885
23.796,-1.558
23.800,-1.153
23.804,-0.623
23.808,-0.050
23.812,0.475
23.816,0.877
23.820,1.137
23.824,1.212
23.828,1.117
23.832,0.897
23.836,0.585
23.840,-0.435
23.844,-0.927
23.848,-1.458
23.852,-1.853
23.856,-2.098
23.860,-2.172
23.864,-2.087
23.868,-1.853
23.872,-1.532
23.876,-1.110
23.880,-0.583
23.884,-0.013
23.888,0.527
23.892,0.915
23.896,1.177
23.900,1.235
23.904,1.143
23.908,0.912
23.912,0.588
23.916,0.182
23.920,-1.028
23.924,-1.468
23.928,-1.867
23.932,-2.112
23.936,-2.178
23.940,-2.095
23.944,-1.863
23.948,-1.540
23.952,-1.130
23.956,-0.603
23.960,-0.025
23.964,0.510
23.968,0.902
23.972,1.157
23.976,1.220
23.980,1.135
23.984,0.902
23.988,0.585
23.992,0.182
23.996,-0.340
24.000,-1.522
24.004,-1.875
24.008,-2.127
24.012,-2.183
24.016,-2.092
24.020,-1.857
24.024,-1.538
24.028,-1.137
24.032,-0.593
24.036,-0.040
24.040,0.497
24.044,0.892
24.048,1.145
24.052,1.222
24.056,1.137
24.060,0.910
24.064,0.588
24.068,0.190
24.072,-0.343
24.076,-0.930
24.080,-1.903
24.084,-2.107
24.088,-2.172
24.092,-2.087
24.096,-1.857
24.100,-1.532
24.104,-1.107
24.108,-0.590
24.112,-0.022
24.116,0.507
24.120,0.900
24.124,1.143
24.128,1.208
24.132,1.100
24.136,0.873
24.140,0.557
24.144,0.152
24.148,-0.370
24.152,-0.943
24.156,-1.482
24.160,-2.147
24.164,-2.210
24.168,-2.098
24.172,-1.532
24.176,-1.143
24.180,-0.608
24.184,-0.043
24.188,0.507
24.192,0.905
24.196,1.167
24.200,1.232
24.204,1.140
24.208,0.900
24.212,0.578
24.216,0.172
24.220,-0.362
24.224,-0.938
24.228,-1.470
24.232,-1.863
24.236,-2.112
24.240,-2.062
24.244,-1.548
24.248,-1.140
24.252,-0.618
24.256,-0.048
24.260,0.497
24.264,0.892
24.268,1.143
24.272,1.208
24.276,1.103
24.280,0.875
24.284,0.550
24.288,0.147
24.292,-0.383
24.296,-0.970
24.300,-1.492
24.304,-1.887
24.308,-2.127
24.312,-2.183
24.316,-2.090
24.320,-1.472
24.324,-1.123
24.328,-0.593
24.332,-0.028
24.336,0.502
24.340,0.905
24.344,1.157
24.348,1.232
24.352,1.143
24.356,0.910
24.360,0.593
24.364,0.185
24.368,-0.347
24.372,-0.927
24.376,-1.465
24.380,-1.857
24.384,-2.107
24.388,-2.167
24.392,-2.060
24.396,-1.847
24.400,-1.048
24.404,-0.573
24.408,-0.028
24.412,0.532
24.416,0.917
24.420,1.143
24.424,1.208
24.428,1.113
24.432,0.892
24.436,0.557
24.440,0.152
24.444,-0.380
24.448,-0.973
24.452,-1.500
24.456,-1.897
24.460,-2.147
24.464,-2.208
24.468,-2.107
24.472,-1.867
24.476,-1.540
24.480,-0.497
24.484,0.100
24.488,0.542
24.492,0.912
24.496,1.170
24.500,1.238
24.504,1.150
24.508,0.912
24.512,0.598
24.516,0.203
24.520,-0.333
24.524,-0.902
24.528,-1.442
24.532,-1.827
24.536,-2.083
24.540,-2.143
24.544,-2.047
24.548,-1.817
24.552,-1.490
24.556,-1.083
24.560,0.107
24.564,0.537
24.568,0.932
24.572,1.177
24.576,1.248
24.580,1.147
24.584,0.912
24.588,0.590
24.592,0.182
24.596,-0.352
24.600,-0.932
24.604,-1.468
24.608,-1.873
24.612,-2.132
24.616,-2.192
24.620,-2.092
24.624,-1.863
24.628,-1.540
24.632,-1.123
24.636,-0.588
24.640,0.598
24.644,0.993
24.648,1.198
24.652,1.238
24.656,1.113
24.660,0.598
24.664,0.198
24.668,-0.343
24.672,-0.927
24.676,-1.468
24.680,-1.867
24.684,-2.123
24.688,-2.188
24.692,-2.103
24.696,-1.867
24.700,-1.542
24.704,-1.127
24.708,-0.583
24.712,-0.010
24.716,0.537
24.720,1.208
24.724,1.250
24.728,1.157
24.732,0.910
24.736,0.588
24.740,0.182
24.744,-0.352
24.748,-0.938
24.752,-1.462
24.756,-1.863
24.760,-2.103
24.764,-2.167
24.768,-2.065
24.772,-1.847
24.776,-1.532
24.780,-1.097
24.784,-0.603
24.788,-0.028
24.792,0.502
24.796,0.897
24.800,1.208
24.804,0.825
24.808,0.102
24.812,-0.372
24.816,-0.948
24.820,-1.485
24.824,-1.875
24.828,-2.120
24.832,-2.178
24.836,-2.083
24.840,-1.857
24.844,-1.522
24.848,-1.107
24.852,-0.588
24.856,-0.022
24.860,0.507
24.864,0.907
24.868,1.163
24.872,1.232
24.876,1.140
24.880,0.527
24.884,-0.542
24.888,-0.973
24.892,-1.532
24.896,-1.923
24.900,-2.145
24.904,-2.195
24.908,-2.120
24.912,-1.885
24.916,-1.548
24.920,-1.133
24.924,-0.605
24.928,-0.033
24.932,0.502
24.936,0.897
24.940,1.137
24.944,1.210
24.948,1.107
24.952,0.890
24.956,0.557
24.960,-0.468
24.964,-0.963
24.968,-1.482
24.972,-1.867
24.976,-2.110
24.980,-2.170
24.984,-2.060
24.988,-1.833
24.992,-1.500
24.996,-1.087
25.000,-0.568
25.004,0.013
25.008,0.527
25.012,0.915
25.016,1.167
25.020,1.222
25.024,1.135
25.028,0.897
25.032,0.565
25.036,0.150
25.040,-1.067
25.044,-1.500
25.048,-1.887
25.052,-2.127
25.056,-2.183
25.060,-2.085
25.064,-1.847
25.068,-1.510
25.072,-1.090
25.076,-0.562
25.080,0.033
25.084,0.547
25.088,0.932
25.092,1.177
25.096,1.228
25.100,1.135
25.104,0.895
25.108,0.552
25.112,0.147
25.116,-0.388
25.120,-1.570
25.124,-1.887
25.128,-2.130
25.132,-2.183
25.136,-2.098
25.140,-1.853
25.144,-1.528
25.148,-1.107
25.152,-0.583
25.156,0.037
25.160,0.507
25.164,0.897
25.168,1.137
25.172,1.192
25.176,1.093
25.180,0.868
25.184,0.530
25.188,0.130
25.192,-0.405
25.196,-0.983
25.200,-1.942
25.204,-2.125
25.208,-2.167
25.212,-2.083
25.216,-1.843
25.220,-1.512
25.224,-1.093
25.228,-0.578
25.232,-0.007
25.236,0.527
25.240,0.910
25.244,1.147
25.248,1.208
25.252,1.097
25.256,0.873
25.260,0.540
25.264,0.142
25.268,-0.385
25.272,-0.968
25.276,-1.488
25.280,-2.127
25.284,-2.167
25.288,-2.055
25.292,-1.830
25.296,-1.498
25.300,-1.085
25.304,-0.562
25.308,0.022
25.312,0.537
25.316,0.932
25.320,1.185
25.324,1.248
25.328,1.147
25.332,0.917
25.336,0.588
25.340,0.188
25.344,-0.347
25.348,-0.930
25.352,-1.455
25.356,-1.847
25.360,-2.143
25.364,-2.053
25.368,-1.830
25.372,-1.498
25.376,-1.083
25.380,-0.562
25.384,-0.007
25.388,0.525
25.392,0.897
25.396,1.140
25.400,1.192
25.404,1.097
25.408,0.875
25.412,0.550
25.416,0.147
25.420,-0.383
25.424,-0.978
25.428,-1.502
25.432,-1.895
25.436,-2.132
25.440,-2.047
25.444,-1.847
25.448,-1.505
25.452,-1.083
25.456,-0.547
25.460,0.045
25.464,0.552
25.468,0.943
25.472,1.180
25.476,1.228
25.480,1.113
25.484,0.895
25.488,0.570
25.492,0.142
25.496,-0.403
25.500,-0.990
25.504,-1.508
25.508,-1.893
25.512,-2.127
25.516,-2.178
25.520,-1.785
25.524,-1.030
25.528,-0.552
25.532,0.028
25.536,0.542
25.540,0.973
25.544,1.173
25.548,1.222
25.552,1.117
25.556,0.897
25.560,0.555
25.564,0.147
25.568,-0.393
25.572,-0.988
25.576,-1.520
25.580,-1.907
25.584,-2.147
25.588,-2.208
25.592,-2.100
25.596,-1.857
25.600,-1.028
25.604,-0.460
25.608,0.090
25.612,0.557
25.616,0.948
25.620,1.180
25.624,1.232
25.628,1.117
25.632,0.892
25.636,0.542
25.640,0.128
25.644,-0.412
25.648,-1.002
25.652,-1.522
25.656,-1.903
25.660,-2.132
25.664,-2.183
25.668,-2.062
25.672,-1.827
25.676,-1.490
25.680,-0.443
25.684,0.048
25.688,0.568
25.692,0.938
25.696,1.180
25.700,1.232
25.704,1.117
25.708,0.890
25.712,0.537
25.716,0.120
25.720,-0.422
25.724,-1.012
25.728,-1.532
25.732,-1.927
25.736,-2.150
25.740,-2.203
25.744,-2.092
25.748,-1.847
25.752,-1.502
25.756,-1.075
25.760,0.128
25.764,0.550
25.768,0.943
25.772,1.175
25.776,1.225
25.780,1.113
25.784,0.887
25.788,0.545
25.792,0.138
25.796,-0.403
25.800,-0.983
25.804,-1.498
25.808,-1.873
25.812,-2.112
25.816,-2.167
25.820,-2.058
25.824,-1.840
25.828,-1.510
25.832,-1.100
25.836,-0.578
25.840,0.583
25.844,0.897
25.848,1.143
25.852,1.198
25.856,1.085
25.860,0.850
25.864,0.510
25.868,0.080
25.872,-0.453
25.876,-1.028
25.880,-1.542
25.884,-1.923
25.888,-2.138
25.892,-2.175
25.896,-2.053
25.900,-1.812
25.904,-1.472
25.908,-1.032
25.912,-0.522
25.916,0.062
25.920,0.988
25.924,1.155
25.928,1.210
25.932,1.087
25.936,0.848
25.940,0.512
25.944,0.092
25.948,-0.435
25.952,-1.022
25.956,-1.550
25.960,-1.927
25.964,-2.147
25.968,-2.192
25.972,-2.087
25.976,-1.843
25.980,-1.498
25.984,-1.055
25.988,-0.532
25.992,0.055
25.996,0.568
26.000,1.208
26.004,1.228
26.008,1.117
26.012,0.887
26.016,0.552
26.020,0.133
26.024,-0.403
26.028,-0.983
26.032,-1.498
26.036,-1.883
26.040,-2.123
26.044,-2.163
26.048,-2.053
26.052,-1.825
26.056,-1.492
26.060,-1.062
26.064,-0.542
26.068,0.043
26.072,0.547
26.076,0.938
26.080,1.218
26.084,1.107
26.088,0.875
26.092,0.552
26.096,0.128
26.100,-0.415
26.104,-1.005
26.108,-1.528
26.112,-1.897
26.116,-2.127
26.120,-2.167
26.124,-2.047
26.128,-1.808
26.132,-1.462
26.136,-1.025
26.140,-0.492
26.144,0.092
26.148,0.598
26.152,0.985
26.156,1.208
26.160,1.103
26.164,0.892
26.168,0.557
26.172,0.130
26.176,-0.415
26.180,-1.000
26.184,-1.510
26.188,-1.895
26.192,-2.127
26.196,-2.172
26.200,-2.058
26.204,-1.833
26.208,-1.500
26.212,-1.062
26.216,-0.535
26.220,0.055
26.224,0.573
26.228,0.948
26.232,1.177
26.236,1.218
26.240,0.800
26.244,0.062
26.248,-0.438
26.252,-1.022
26.256,-1.528
26.260,-1.897
26.264,-2.123
26.268,-2.163
26.272,-2.047
26.276,-1.808
26.280,-1.472
26.284,-1.032
26.288,-0.507
26.292,0.072
26.296,0.573
26.300,0.940
26.304,1.157
26.308,1.198
26.312,1.087
26.316,0.853
26.320,0.018
26.324,-1.133
26.328,-1.562
26.332,-1.893
26.336,-2.107
26.340,-2.138
26.344,-2.018
26.348,-1.792
26.352,-1.458
26.356,-1.028
26.360,-0.507
26.364,0.070
26.368,0.580
26.372,0.950
26.376,1.170
26.380,1.208
26.384,1.093
26.388,0.853
26.392,0.527
26.396,0.105
26.400,-1.093
26.404,-1.502
26.408,-1.873
26.412,-2.092
26.416,-2.132
26.420,-2.018
26.424,-1.782
26.428,-1.458
26.432,-1.022
26.436,-0.495
26.440,0.077
26.444,0.590
26.448,0.958
26.452,1.188
26.456,1.230
26.460,1.115
26.464,0.875
26.468,0.547
26.472,0.133
26.476,-0.405
26.480,-1.583
26.484,-1.887
26.488,-2.110
26.492,-2.143
26.496,-2.027
26.500,-1.792
26.504,-1.455
26.508,-1.012
26.512,-0.492
26.516,0.090
26.520,0.588
26.524,0.988
26.528,1.192
26.532,1.230
26.536,1.107
26.540,0.868
26.544,0.532
26.548,0.098
26.552,-0.448
26.556,-1.032
26.560,-1.982
26.564,-2.163
26.568,-2.192
26.572,-2.087
26.576,-1.833
26.580,-1.492
26.584,-1.048
26.588,-0.510
26.592,0.085
26.596,0.593
26.600,0.980
26.604,1.208
26.608,1.250
26.612,1.147
26.616,0.902
26.620,0.573
26.624,0.130
26.628,-0.407
26.632,-0.988
26.636,-1.508
26.640,-2.152
26.644,-2.175
26.648,-2.053
26.652,-1.815
26.656,-1.482
26.660,-1.035
26.664,-0.512
26.668,0.068
26.672,0.580
26.676,0.958
26.680,1.190
26.684,1.228
26.688,1.103
26.692,0.863
26.696,0.517
26.700,0.090
26.704,-0.453
26.708,-1.065
26.712,-1.540
26.716,-1.923
26.720,-2.163
26.724,-2.047
26.728,-1.385
26.732,-0.468
26.736,0.113
26.740,0.615
26.744,0.995
26.748,1.212
26.752,1.238
26.756,1.110
26.760,0.868
26.764,0.527
26.768,0.090
26.772,-0.463
26.776,-1.042
26.780,-1.562
26.784,-1.925
26.788,-2.143
26.792,-2.178
26.796,-2.047
26.800,-1.395
26.804,-0.388
26.808,0.138
26.812,0.593
26.816,0.983
26.820,1.212
26.824,1.250
26.828,1.143
26.832,0.907
26.836,0.570
26.840,0.140
26.844,-0.410
26.848,-0.985
26.852,-1.502
26.856,-1.873
26.860,-2.100
26.864,-2.138
26.868,-2.025
26.872,-1.782
26.876,-1.452
26.880,-0.385
26.884,0.195
26.888,0.708
26.892,1.177
26.896,1.198
26.900,1.080
26.904,0.848
26.908,0.507
26.912,0.077
26.916,-0.463
26.920,-1.058
26.924,-1.548
26.928,-1.933
26.932,-2.135
26.936,-2.172
26.940,-2.053
26.944,-1.812
26.948,-1.468
26.952,-1.032
26.956,-0.492
26.960,0.672
26.964,0.993
26.968,1.192
26.972,1.232
26.976,1.107
26.980,0.868
26.984,0.532
26.988,0.100
26.992,-0.465
26.996,-1.032
27.000,-1.535
27.004,-1.903
27.008,-2.125
27.012,-2.163
27.016,-2.035
27.020,-1.795
27.024,-1.465
27.028,-1.028
27.032,-0.485
27.036,0.102
27.040,1.018
27.044,1.180
27.048,1.218
27.052,1.090
27.056,0.848
27.060,0.497
27.064,0.062
27.068,-0.502
27.072,-1.067
27.076,-1.573
27.080,-1.968
27.084,-2.160
27.088,-2.188
27.092,-2.060
27.096,-1.815
27.100,-1.468
27.104,-1.015
27.108,-0.465
27.112,0.105
27.116,0.608
27.120,1.210
27.124,1.208
27.128,1.093
27.132,0.848
27.136,0.507
27.140,0.068
27.144,-0.502
27.148,-1.065
27.152,-1.575
27.156,-1.942
27.160,-2.163
27.164,-2.188
27.168,-2.080
27.172,-1.823
27.176,-1.492
27.180,-1.048
27.184,-0.497
27.188,0.087
27.192,0.580
27.196,0.955
27.200,1.215
27.204,1.095
27.208,0.848
27.212,0.507
27.216,0.072
27.220,-0.487
27.224,-1.060
27.228,-1.573
27.232,-1.948
27.236,-2.163
27.240,-2.190
27.244,-2.080
27.248,-1.823
27.252,-1.485
27.256,-1.050
27.260,-0.500
27.264,0.077
27.268,0.583
27.272,0.943
27.276,1.167
27.280,1.038
27.284,0.833
27.288,0.497
27.292,0.070
27.296,-0.490
27.300,-1.055
27.304,-1.552
27.308,-1.933
27.312,-2.145
27.316,-2.178
27.320,-2.055
27.324,-1.812
27.328,-1.468
27.332,-1.025
27.336,-0.480
27.340,0.107
27.344,0.608
27.348,0.988
27.352,1.192
27.356,1.238
27.360,0.818
27.364,0.537
27.368,0.110
27.372,-0.453
27.376,-1.022
27.380,-1.540
27.384,-1.905
27.388,-2.138
27.392,-2.180
27.396,-2.058
27.400,-1.817
27.404,-1.492
27.408,-1.058
27.412,-0.510
27.416,0.062
27.420,0.565
27.424,0.930
27.428,1.147
27.432,1.177
27.436,1.052
27.440,0.422
27.444,0.033
27.448,-0.527
27.452,-1.058
27.456,-1.610
27.460,-1.930
27.464,-2.132
27.468,-2.152
27.472,-2.027
27.476,-1.782
27.480,-1.450
27.484,-1.010
27.488,-0.460
27.492,0.130
27.496,0.608
27.500,0.950
27.504,1.165
27.508,1.188
27.512,1.067
27.516,0.828
27.520,-0.022
27.524,-1.062
27.528,-1.552
27.532,-1.907
27.536,-2.125
27.540,-2.147
27.544,-2.022
27.548,-1.778
27.552,-1.442
27.556,-0.993
27.560,-0.443
27.564,0.133
27.568,0.627
27.572,0.998
27.576,1.215
27.580,1.238
27.584,1.113
27.588,0.863
27.592,0.517
27.596,0.072
27.600,-1.143
27.604,-1.552
27.608,-1.933
27.612,-2.132
27.616,-2.163
27.620,-2.030
27.624,-1.788
27.628,-1.460
27.632,-1.018
27.636,-0.485
27.640,0.092
27.644,0.588
27.648,0.948
27.652,1.167
27.656,1.192
27.660,1.067
27.664,0.828
27.668,0.492
27.672,0.065
27.676,-0.500
27.680,-1.655
27.684,-1.975
27.688,-2.167
27.692,-2.192
27.696,-2.058
27.700,-1.808
27.704,-1.458
27.708,-1.012
27.712,-0.458
27.716,0.107
27.720,0.613
27.724,0.988
27.728,1.190
27.732,1.220
27.736,1.090
27.740,0.838
27.744,0.507
27.748,0.075
27.752,-0.487
27.756,-1.052
27.760,-1.962
27.764,-2.112
27.768,-2.138
27.772,-2.005
27.776,-1.762
27.780,-1.417
27.784,-0.988
27.788,-0.450
27.792,0.115
27.796,0.610
27.800,0.958
27.804,1.170
27.808,1.192
27.812,1.067
27.816,0.825
27.820,0.492
27.824,0.062
27.828,-0.502
27.832,-1.067
27.836,-1.573
27.840,-2.167
27.844,-2.172
27.848,-2.042
27.852,-1.788
27.856,-1.413
27.860,-0.988
27.864,-0.432
27.868,0.133
27.872,0.620
27.876,0.988
27.880,1.188
27.884,1.212
27.888,1.077
27.892,0.825
27.896,0.492
27.900,0.048
27.904,-0.532
27.908,-1.093
27.912,-1.607
27.916,-1.962
27.920,-2.170
27.924,-2.053
27.928,-1.792
27.932,-1.452
27.936,-1.002
27.940,-0.453
27.944,0.133
27.948,0.618
27.952,0.988
27.956,1.198
27.960,1.228
27.964,1.097
27.968,0.853
27.972,0.512
27.976,0.068
27.980,-0.492
27.984,-1.077
27.988,-1.573
27.992,-1.942
27.996,-2.147
28.000,-2.002
28.004,-1.788
28.008,-1.448
28.012,-1.005
28.016,-0.453
28.020,0.133
28.024,0.615
28.028,0.988
28.032,1.198
28.036,1.228
28.040,1.100
28.044,0.855
28.048,0.525
28.052,0.092
28.056,-0.463
28.060,-1.062
28.064,-1.550
28.068,-1.925
28.072,-2.130
28.076,-2.140
28.080,-1.692
28.084,-1.323
28.088,-0.935
28.092,-0.407
28.096,0.190
28.100,0.685
28.104,1.038
28.108,1.248
28.112,1.272
28.116,1.145
28.120,0.887
28.124,0.545
28.128,0.102
28.132,-0.463
28.136,-1.055
28.140,-1.562
28.144,-1.923
28.148,-2.123
28.152,-2.138
28.156,-2.010
28.160,-1.335
28.164,-0.973
28.168,-0.427
28.172,0.145
28.176,0.623
28.180,0.983
28.184,1.177
28.188,1.192
28.192,1.060
28.196,0.820
28.200,0.472
28.204,0.048
28.208,-0.510
28.212,-1.093
28.216,-1.573
28.220,-1.933
28.224,-2.132
28.228,-2.152
28.232,-2.027
28.236,-1.782
28.240,-0.907
28.244,0.188
28.248,0.627
28.252,1.008
28.256,1.210
28.260,1.228
28.264,1.100
28.268,0.838
28.272,0.438
28.276,0.043
28.280,-0.497
28.284,-1.085
28.288,-1.577
28.292,-1.942
28.296,-2.138
28.300,-2.145
28.304,-2.015
28.308,-1.745
28.312,-1.407
28.316,-0.965
28.320,0.237
28.324,1.008
28.328,1.202
28.332,1.212
28.336,1.073
28.340,0.818
28.344,0.472
28.348,0.048
28.352,-0.512
28.356,-1.087
28.360,-1.577
28.364,-1.948
28.368,-2.143
28.372,-2.167
28.376,-2.030
28.380,-1.780
28.384,-1.425
28.388,-0.980
28.392,-0.427
28.396,0.158
28.400,1.060
28.404,1.218
28.408,1.232
28.412,1.093
28.416,0.845
28.420,0.497
28.424,0.060
28.428,-0.507
28.432,-1.090
28.436,-1.580
28.440,-1.938
28.444,-2.127
28.448,-2.143
28.452,-2.007
28.456,-1.742
28.460,-1.407
28.464,-0.973
28.468,-0.420
28.472,0.158
28.476,0.632
28.480,1.195
28.484,1.208
28.488,1.052
28.492,0.777
28.496,0.468
28.500,0.043
28.504,-0.512
28.508,-1.093
28.512,-1.580
28.516,-1.948
28.520,-2.143
28.524,-2.170
28.528,-2.025
28.532,-1.768
28.536,-1.410
28.540,-0.970
28.544,-0.412
28.548,0.172
28.552,0.662
28.556,1.012
28.560,1.212
28.564,1.067
28.568,0.828
28.572,0.450
28.576,-0.005
28.580,-0.620
28.584,-1.145
28.588,-1.627
28.592,-2.033
28.596,-2.180
28.600,-2.203
28.604,-2.062
28.608,-1.808
28.612,-1.460
28.616,-1.010
28.620,-0.453
28.624,0.138
28.628,0.627
28.632,1.020
28.636,1.198
28.640,1.052
28.644,0.828
28.648,0.472
28.652,0.037
28.656,-0.507
28.660,-1.095
28.664,-1.567
28.668,-1.905
28.672,-2.107
28.676,-2.103
28.680,-1.975
28.684,-1.708
28.688,-1.373
28.692,-0.927
28.696,-0.385
28.700,0.182
28.704,0.662
28.708,1.020
28.712,1.220
28.716,1.232
28.720,0.728
28.724,0.468
28.728,0.048
28.732,-0.527
28.736,-1.123
28.740,-1.617
28.744,-1.972
28.748,-2.172
28.752,-2.183
28.756,-2.022
28.760,-1.790
28.764,-1.445
28.768,-0.983
28.772,-0.417
28.776,0.152
28.780,0.657
28.784,1.002
28.788,1.208
28.792,1.228
28.796,1.100
28.800,0.422
28.804,0.043
28.808,-0.530
28.812,-1.125
28.816,-1.617
28.820,-1.972
28.824,-2.163
28.828,-2.178
28.832,-2.030
28.836,-1.775
28.840,-1.413
28.844,-0.965
28.848,-0.412
28.852,0.177
28.856,0.657
28.860,1.008
28.864,1.188
28.868,1.198
28.872,1.062
28.876,0.792
28.880,-0.092
28.884,-0.625
28.888,-1.675
28.892,-2.007
28.896,-2.160
28.900,-2.172
28.904,-2.025
28.908,-1.778
28.912,-1.425
28.916,-0.978
28.920,-0.432
28.924,0.142
28.928,0.620
28.932,0.980
28.936,1.177
28.940,1.192
28.944,1.062
28.948,0.823
28.952,0.477
28.956,0.058
28.960,-1.173
28.964,-1.942
28.968,-2.132
28.972,-2.143
28.976,-2.010
28.980,-1.768
28.984,-1.420
28.988,-0.968
28.992,-0.407
28.996,0.158
29.000,0.660
29.004,0.993
29.008,1.188
29.012,1.202
29.016,1.067
29.020,0.818
29.024,0.468
29.028,0.028
29.032,-0.537
29.036,-1.143
29.040,-2.067
29.044,-2.180
29.048,-2.188
29.052,-2.042
29.056,-1.788
29.060,-1.427
29.064,-0.983
29.068,-0.422
29.072,0.150
29.076,0.670
29.080,1.018
29.084,1.198
29.088,1.212
29.092,1.062
29.096,0.795
29.100,0.450
29.104,-0.007
29.108,-0.565
29.112,-1.135
29.116,-1.640
29.120,-2.192
29.124,-2.150
29.128,-2.010
29.132,-1.742
29.136,-1.403
29.140,-0.938
29.144,-0.360
29.148,0.698
29.152,1.032
29.156,1.190
29.160,1.208
29.164,1.060
29.168,0.792
29.172,0.450
29.176,-0.007
29.180,-0.552
29.184,-1.133
29.188,-1.653
29.192,-1.978
29.196,-2.152
29.200,-1.975
29.204,-1.742
29.208,-1.353
29.212,-0.887
29.216,-0.335
29.220,0.188
29.224,0.715
29.228,1.018
29.232,1.208
29.236,1.208
29.240,1.070
29.244,0.823
29.248,0.470
29.252,0.028
29.256,-0.547
29.260,-1.185
29.264,-2.010
29.268,-2.167
29.272,-2.178
29.276,-2.022
29.280,-1.343
29.284,-0.963
29.288,-0.410
29.292,0.158
29.296,0.665
29.300,0.998
29.304,1.177
29.308,1.177
29.312,1.028
29.316,0.757
29.320,0.417
29.324,-0.052
29.328,-0.595
29.332,-1.170
29.336,-1.670
29.340,-2.013
29.344,-2.183
29.348,-2.188
29.352,-2.038
29.356,-1.772
29.360,-0.858
29.364,-0.393
29.368,0.713
29.372,1.020
29.376,1.208
29.380,1.212
29.384,1.058
29.388,0.752
29.392,0.417
29.396,-0.018
29.400,-0.578
29.404,-1.145
29.408,-1.643
29.412,-1.990
29.416,-2.150
29.420,-2.163
29.424,-2.007
29.428,-1.738
29.432,-1.385
29.436,-0.927
29.440,0.273
29.444,1.020
29.448,1.188
29.452,1.190
29.456,1.048
29.460,0.782
29.464,0.448
29.468,-0.010
29.472,-0.568
29.476,-1.143
29.480,-1.633
29.484,-1.972
29.488,-2.145
29.492,-2.150
29.496,-2.007
29.500,-1.742
29.504,-1.393
29.508,-0.938
29.512,-0.393
29.516,0.177
29.520,1.022
29.524,1.167
29.528,1.155
29.532,1.020
29.536,0.748
29.540,0.407
29.544,-0.050
29.548,-0.603
29.552,-1.173
29.556,-1.663
29.560,-1.988
29.564,-2.163
29.568,-2.163
29.572,-2.013
29.576,-1.738
29.580,-1.390
29.584,-0.932
29.588,-0.390
29.592,0.182
29.596,0.667
29.600,1.212
29.604,1.195
29.608,1.065
29.612,0.812
29.616,0.455
29.620,0.022
29.624,-0.542
29.628,-1.107
29.632,-1.623
29.636,-1.962
29.640,-2.143
29.644,-2.152
29.648,-2.015
29.652,-1.740
29.656,-1.397
29.660,-0.938
29.664,-0.388
29.668,0.185
29.672,0.662
29.676,0.993
29.680,1.173
29.684,0.993
29.688,0.693
29.692,0.388
29.696,-0.135
29.700,-0.610
29.704,-1.165
29.708,-1.660
29.712,-1.992
29.716,-2.167
29.720,-2.163
29.724,-2.007
29.728,-1.732
29.732,-1.375
29.736,-0.907
29.740,-0.365
29.744,0.217
29.748,0.695
29.752,1.030
29.756,1.208
29.760,1.030
29.764,0.797
29.768,0.448
29.772,-0.013
29.776,-0.608
29.780,-1.163
29.784,-1.657
29.788,-1.982
29.792,-2.147
29.796,-2.152
29.800,-1.982
29.804,-1.702
29.808,-1.347
29.812,-0.892
29.816,-0.333
29.820,0.247
29.824,0.718
29.828,1.058
29.832,1.232
29.836,1.232
29.840,0.770
29.844,0.468
29.848,0.020
29.852,-0.547
29.856,-1.125
29.860,-1.623
29.864,-1.948
29.868,-2.132
29.872,-2.123
29.876,-1.972
29.880,-1.708
29.884,-1.355
29.888,-0.895
29.892,-0.347
29.896,0.225
29.900,0.703
29.904,1.032
29.908,1.208
29.912,1.198
29.916,1.035
29.920,0.343
29.924,-0.058
29.928,-0.613
29.932,-1.177
29.936,-1.667
29.940,-1.992
29.944,-2.165
29.948,-2.165
29.952,-2.015
29.956,-1.738
29.960,-1.387
29.964,-0.922
29.968,-0.367
29.972,0.217
29.976,0.695
29.980,1.032
29.984,1.218
29.988,1.218
29.992,1.062
29.996,0.815
30.000,-0.087
30.004,-1.173
30.008,-1.647
30.012,-1.972
30.016,-2.147
30.020,-2.150
30.024,-2.007
30.028,-1.732
30.032,-1.387
30.036,-0.927
30.040,-0.367
30.044,0.203
30.048,0.682
30.052,1.022
30.056,1.195
30.060,1.198
30.064,1.050
30.068,0.777
30.072,0.420
30.076,-0.043
30.080,-1.252
30.084,-2.007
30.088,-2.172
30.092,-2.150
30.096,-1.992
30.100,-1.720
30.104,-1.353
30.108,-0.887
30.112,-0.333
30.116,0.228
30.120,0.708
30.124,1.048
30.128,1.218
30.132,1.215
30.136,1.060
30.140,0.785
30.144,0.432
30.148,-0.043
30.152,-0.608
30.156,-1.180
30.160,-2.042
30.164,-2.172
30.168,-2.027
30.172,-1.765
30.176,-1.390
30.180,-0.925
30.184,-0.370
30.188,0.205
30.192,0.677
30.196,1.020
30.200,1.185
30.204,1.177
30.208,1.025
30.212,0.755
30.216,0.415
30.220,-0.055
30.224,-0.608
30.228,-1.167
30.232,-1.653
30.236,-1.982
30.240,-2.123
30.244,-1.982
30.248,-1.710
30.252,-1.355
30.256,-0.892
30.260,-0.340
30.264,0.228
30.268,0.703
30.272,1.030
30.276,1.192
30.280,1.180
30.284,1.025
30.288,0.740
30.292,0.388
30.296,-0.083
30.300,-0.645
30.304,-1.202
30.308,-1.667
30.312,-2.005
30.316,-2.155
30.320,-1.948
30.324,-1.712
30.328,-1.350
30.332,-0.890
30.336,-0.335
30.340,0.245
30.344,0.718
30.348,1.058
30.352,1.222
30.356,1.218
30.360,1.060
30.364,0.777
30.368,0.420
30.372,-0.050
30.376,-0.618
30.380,-1.188
30.384,-1.673
30.388,-2.013
30.392,-2.178
30.396,-2.170
30.400,-1.683
30.404,-1.380
30.408,-0.905
30.412,-0.362
30.416,0.207
30.420,0.677
30.424,1.022
30.428,1.192
30.432,1.183
30.436,1.030
30.440,0.767
30.444,0.410
30.448,-0.055
30.452,-0.605
30.456,-1.167
30.460,-1.643
30.464,-1.978
30.468,-2.138
30.472,-2.125
30.476,-1.972
30.480,-1.262
30.484,-0.882
30.488,-0.328
30.492,0.247
30.496,0.713
30.500,1.050
30.504,1.212
30.508,1.198
30.512,1.048
30.516,0.770
30.520,0.417
30.524,-0.055
30.528,-0.618
30.532,-1.188
30.536,-1.665
30.540,-1.990
30.544,-2.143
30.548,-2.130
30.552,-1.975
30.556,-1.700
30.560,-0.802
30.564,-0.338
30.568,0.265
30.572,0.780
30.576,1.208
30.580,1.192
30.584,1.052
30.588,0.782
30.592,0.432
30.596,-0.022
30.600,-0.578
30.604,-1.147
30.608,-1.627
30.612,-1.968
30.616,-2.125
30.620,-2.112
30.624,-1.962
30.628,-1.692
30.632,-1.343
30.636,-0.887
30.640,0.300
30.644,0.770
30.648,1.192
30.652,1.183
30.656,1.028
30.660,0.748
30.664,0.390
30.668,-0.083
30.672,-0.650
30.676,-1.212
30.680,-1.683
30.684,-2.013
30.688,-2.170
30.692,-2.152
30.696,-1.990
30.700,-1.722
30.704,-1.367
30.708,-0.897
30.712,-0.345
30.716,0.220
30.720,1.060
30.724,1.180
30.728,1.022
30.732,0.740
30.736,0.393
30.740,-0.072
30.744,-0.640
30.748,-1.190
30.752,-1.673
30.756,-2.010
30.760,-2.178
30.764,-2.172
30.768,-2.022
30.772,-1.742
30.776,-1.383
30.780,-0.912
30.784,-0.362
30.788,0.212
30.792,0.677
30.796,1.015
30.800,1.143
30.804,0.975
30.808,0.728
30.812,0.388
30.816,-0.083
30.820,-0.642
30.824,-1.202
30.828,-1.665
30.832,-2.002
30.836,-2.152
30.840,-2.132
30.844,-1.968
30.848,-1.698
30.852,-1.337
30.856,-0.868
30.860,-0.305
30.864,0.278
30.868,0.738
30.872,1.073
30.876,1.258
30.880,1.060
30.884,0.777
30.888,0.372
30.892,-0.072
30.896,-0.660
30.900,-1.232
30.904,-1.712
30.908,-2.058
30.912,-2.217
30.916,-2.203
30.920,-2.042
30.924,-1.735
30.928,-1.390
30.932,-0.912
30.936,-0.350
30.940,0.230
30.944,0.703
30.948,1.192
30.952,1.173
30.956,1.018
30.960,0.307
30.964,-0.098
30.968,-0.662
30.972,-1.220
30.976,-1.698
30.980,-2.027
30.984,-2.185
30.988,-2.167
30.992,-2.013
30.996,-1.732
31.000,-1.377
31.004,-0.902
31.008,-0.352
31.012,0.217
31.016,0.688
31.020,1.015
31.024,1.175
31.028,1.167
31.032,1.008
31.036,0.730
31.040,-0.172
31.044,-0.757
31.048,-1.222
31.052,-1.685
31.056,-2.007
31.060,-2.150
31.064,-2.132
31.068,-1.965
31.072,-1.688
31.076,-1.335
31.080,-0.860
31.084,-0.295
31.088,0.270
31.092,0.733
31.096,1.062
31.100,1.218
31.104,1.198
31.108,1.038
31.112,0.757
31.116,0.398
31.120,-0.733
31.124,-1.190
31.128,-1.683
31.132,-2.002
31.136,-2.167
31.140,-2.152
31.144,-1.992
31.148,-1.710
31.152,-1.347
31.156,-0.868
31.160,-0.297
31.164,0.263
31.168,0.733
31.172,1.058
31.176,1.218
31.180,1.192
31.184,1.032
31.188,0.748
31.192,0.398
31.196,-0.065
31.200,-1.262
31.204,-1.657
31.208,-1.982
31.212,-2.163
31.216,-2.143
31.220,-1.978
31.224,-1.702
31.228,-1.343
31.232,-0.858
31.236,-0.323
31.240,0.253
31.244,0.720
31.248,1.050
31.252,1.218
31.256,1.192
31.260,1.030
31.264,0.750
31.268,0.390
31.272,-0.083
31.276,-0.657
31.280,-1.768
31.284,-2.180
31.288,-2.163
31.292,-1.995
31.296,-1.705
31.300,-1.343
31.304,-0.812
31.308,-0.270
31.312,0.270
31.316,0.740
31.320,1.073
31.324,1.228
31.328,1.212
31.332,1.032
31.336,0.752
31.340,0.395
31.344,-0.070
31.348,-0.650
31.352,-1.202
31.356,-1.673
