Czas(s),EKG_Surowe(mV),PPG_Surowe(ADC)
0.000,-0.304,-13966
0.001,-0.296,-13966
0.002,-0.286,-13940
0.003,-0.275,-13940
0.004,-0.263,-13940
0.005,-0.254,-13940
0.006,-0.244,-13940
0.007,-0.233,-13940
0.008,-0.228,-13940
0.009,-0.226,-13940
0.010,-0.231,-13940
0.011,-0.249,-13940
0.012,-0.266,-13948
0.013,-0.289,-13948
0.014,-0.312,-13948
0.015,-0.336,-13948
0.016,-0.355,-13948
0.017,-0.371,-13948
0.018,-0.381,-13948
0.019,-0.389,-13948
0.020,-0.381,-13948
0.021,-0.376,-13939
0.022,-0.362,-13939
0.023,-0.346,-13939
0.024,-0.336,-13939
0.025,-0.324,-13939
0.026,-0.310,-13939
0.027,-0.304,-13939
0.028,-0.301,-13939
0.029,-0.301,-13939
0.030,-0.304,-13939
0.031,-0.309,-13936
0.032,-0.311,-13936
0.033,-0.321,-13936
0.034,-0.311,-13936
0.035,-0.297,-13936
0.036,-0.275,-13936
0.037,-0.241,-13936
0.038,-0.188,-13936
0.039,-0.121,-13936
0.040,0.079,-13955
0.041,0.291,-13955
0.042,0.411,-13955
0.043,0.531,-13955
0.044,0.664,-13955
0.045,0.791,-13955
0.046,0.926,-13955
0.047,1.056,-13955
0.048,1.191,-13955
0.049,1.334,-13955
0.050,1.470,-13913
0.051,1.599,-13913
0.052,1.719,-13913
0.053,1.806,-13913
0.054,1.866,-13913
0.055,1.887,-13913
0.056,1.871,-13913
0.057,1.820,-13913
0.058,1.754,-13913
0.059,1.669,-13913
0.060,1.434,-13935
0.061,1.191,-13935
0.062,1.046,-13935
0.063,0.891,-13935
0.064,0.729,-13935
0.065,0.554,-13935
0.066,0.394,-13935
0.067,0.233,-13935
0.068,0.094,-13939
0.069,-0.046,-13939
0.070,-0.161,-13939
0.071,-0.256,-13939
0.072,-0.341,-13939
0.073,-0.414,-13939
0.074,-0.471,-13939
0.075,-0.524,-13939
0.076,-0.551,-13939
0.077,-0.585,-13939
0.078,-0.606,-13923
0.079,-0.614,-13923
0.080,-0.619,-13923
0.081,-0.619,-13923
0.082,-0.600,-13923
0.083,-0.611,-13923
0.084,-0.604,-13923
0.085,-0.604,-13923
0.086,-0.596,-13923
0.087,-0.591,-13913
0.088,-0.591,-13913
0.089,-0.591,-13913
0.090,-0.588,-13913
0.091,-0.576,-13913
0.092,-0.566,-13913
0.093,-0.555,-13913
0.094,-0.541,-13913
0.095,-0.516,-13913
0.096,-0.495,-13913
0.097,-0.466,-13943
0.098,-0.443,-13943
0.099,-0.414,-13943
0.100,-0.374,-13943
0.101,-0.369,-13943
0.102,-0.370,-13943
0.103,-0.371,-13943
0.104,-0.384,-13943
0.105,-0.394,-13943
0.106,-0.414,-13899
0.107,-0.429,-13899
0.108,-0.446,-13899
0.109,-0.454,-13899
0.110,-0.468,-13899
0.111,-0.472,-13899
0.112,-0.471,-13899
0.113,-0.469,-13899
0.114,-0.461,-13899
0.115,-0.448,-13899
0.116,-0.431,-13910
0.117,-0.421,-13910
0.118,-0.404,-13910
0.119,-0.389,-13910
0.120,-0.364,-13910
0.121,-0.362,-13910
0.122,-0.366,-13910
0.123,-0.369,-13910
0.124,-0.381,-13910
0.125,-0.401,-13879
0.126,-0.411,-13879
0.127,-0.426,-13879
0.128,-0.444,-13879
0.129,-0.451,-13879
0.130,-0.459,-13879
0.131,-0.461,-13879
0.132,-0.451,-13879
0.133,-0.444,-13879
0.134,-0.430,-13879
0.135,-0.416,-13878
0.136,-0.404,-13878
0.137,-0.385,-13878
0.138,-0.369,-13878
0.139,-0.356,-13878
0.140,-0.347,-13878
0.141,-0.346,-13878
0.142,-0.351,-13878
0.143,-0.361,-13878
0.144,-0.371,-13843
0.145,-0.389,-13843
0.146,-0.406,-13843
0.147,-0.422,-13843
0.148,-0.424,-13843
0.149,-0.426,-13843
0.150,-0.421,-13843
0.151,-0.405,-13843
0.152,-0.390,-13843
0.153,-0.374,-13843
0.154,-0.357,-13848
0.155,-0.346,-13848
0.156,-0.329,-13848
0.157,-0.314,-13848
0.158,-0.304,-13848
0.159,-0.296,-13848
0.160,-0.299,-13848
0.161,-0.309,-13848
0.162,-0.320,-13848
0.163,-0.334,-13841
0.164,-0.346,-13841
0.165,-0.359,-13841
0.166,-0.367,-13841
0.167,-0.376,-13841
0.168,-0.381,-13841
0.169,-0.386,-13841
0.170,-0.383,-13841
0.171,-0.375,-13841
0.172,-0.356,-13841
0.173,-0.343,-13833
0.174,-0.324,-13833
0.175,-0.304,-13833
0.176,-0.289,-13833
0.177,-0.281,-13833
0.178,-0.270,-13833
0.179,-0.266,-13833
0.180,-0.275,-13833
0.181,-0.286,-13833
0.182,-0.297,-13795
0.183,-0.306,-13795
0.184,-0.325,-13795
0.185,-0.334,-13795
0.186,-0.344,-13795
0.187,-0.349,-13795
0.188,-0.351,-13795
0.189,-0.349,-13795
0.190,-0.345,-13795
0.191,-0.331,-13795
0.192,-0.326,-13814
0.193,-0.306,-13814
0.194,-0.294,-13814
0.195,-0.287,-13814
0.196,-0.274,-13814
0.197,-0.275,-13814
0.198,-0.280,-13814
0.199,-0.284,-13814
0.200,-0.307,-13814
0.201,-0.314,-13823
0.202,-0.333,-13823
0.203,-0.346,-13823
0.204,-0.351,-13823
0.205,-0.354,-13823
0.206,-0.361,-13823
0.207,-0.351,-13823
0.208,-0.344,-13823
0.209,-0.330,-13823
0.210,-0.311,-13823
0.211,-0.290,-13811
0.212,-0.271,-13811
0.213,-0.251,-13811
0.214,-0.229,-13811
0.215,-0.214,-13811
0.216,-0.209,-13811
0.217,-0.209,-13811
0.218,-0.211,-13811
0.219,-0.219,-13811
0.220,-0.251,-13797
0.221,-0.266,-13797
0.222,-0.273,-13797
0.223,-0.276,-13797
0.224,-0.271,-13797
0.225,-0.275,-13797
0.226,-0.269,-13797
0.227,-0.256,-13797
0.228,-0.246,-13797
0.229,-0.226,-13780
0.230,-0.211,-13780
0.231,-0.194,-13780
0.232,-0.184,-13780
0.233,-0.171,-13780
0.234,-0.164,-13780
0.235,-0.152,-13780
0.236,-0.151,-13780
0.237,-0.151,-13780
0.238,-0.164,-13780
0.239,-0.176,-13784
0.240,-0.209,-13784
0.241,-0.214,-13784
0.242,-0.226,-13784
0.243,-0.229,-13784
0.244,-0.225,-13784
0.245,-0.216,-13784
0.246,-0.206,-13784
0.247,-0.191,-13784
0.248,-0.174,-13831
0.249,-0.161,-13831
0.250,-0.144,-13831
0.251,-0.131,-13831
0.252,-0.115,-13831
0.253,-0.106,-13831
0.254,-0.096,-13831
0.255,-0.094,-13831
0.256,-0.096,-13831
0.257,-0.104,-13831
0.258,-0.111,-13856
0.259,-0.124,-13856
0.260,-0.144,-13856
0.261,-0.149,-13856
0.262,-0.151,-13856
0.263,-0.151,-13856
0.264,-0.149,-13856
0.265,-0.141,-13856
0.266,-0.126,-13856
0.267,-0.106,-13886
0.268,-0.091,-13886
0.269,-0.069,-13886
0.270,-0.055,-13886
0.271,-0.044,-13886
0.272,-0.034,-13886
0.273,-0.029,-13886
0.274,-0.031,-13886
0.275,-0.036,-13886
0.276,-0.046,-13886
0.277,-0.064,-13886
0.278,-0.081,-13930
0.279,-0.096,-13930
0.280,-0.131,-13930
0.281,-0.146,-13930
0.282,-0.147,-13930
0.283,-0.144,-13930
0.284,-0.131,-13930
0.285,-0.116,-13930
0.286,-0.101,-13930
0.287,-0.083,-13969
0.288,-0.065,-13969
0.289,-0.046,-13969
0.290,-0.034,-13969
0.291,-0.025,-13969
0.292,-0.021,-13969
0.293,-0.021,-13969
0.294,-0.029,-13969
0.295,-0.033,-13969
0.296,-0.049,-13969
0.297,-0.061,-14022
0.298,-0.071,-14022
0.299,-0.086,-14022
0.300,-0.094,-14022
0.301,-0.081,-14022
0.302,-0.089,-14022
0.303,-0.081,-14022
0.304,-0.066,-14022
0.305,-0.052,-14022
0.306,-0.041,-14072
0.307,-0.026,-14072
0.308,-0.016,-14072
0.309,-0.010,-14072
0.310,-0.011,-14072
0.311,-0.013,-14072
0.312,-0.024,-14072
0.313,-0.041,-14072
0.314,-0.052,-14072
0.315,-0.081,-14072
0.316,-0.094,-14107
0.317,-0.115,-14107
0.318,-0.136,-14107
0.319,-0.161,-14107
0.320,-0.186,-14107
0.321,-0.184,-14107
0.322,-0.181,-14107
0.323,-0.174,-14107
0.324,-0.171,-14107
0.325,-0.164,-14092
0.326,-0.145,-14092
0.327,-0.142,-14092
0.328,-0.145,-14092
0.329,-0.151,-14092
0.330,-0.172,-14092
0.331,-0.204,-14092
0.332,-0.251,-14092
0.333,-0.251,-14133
0.334,-0.274,-14133
0.335,-0.294,-14133
0.336,-0.311,-14133
0.337,-0.330,-14133
0.338,-0.336,-14133
0.339,-0.336,-14133
0.340,-0.324,-14133
0.341,-0.294,-14137
0.342,-0.268,-14137
0.343,-0.265,-14137
0.344,-0.254,-14137
0.345,-0.258,-14137
0.346,-0.264,-14137
0.347,-0.276,-14137
0.348,-0.286,-14137
0.349,-0.304,-14137
0.350,-0.311,-14154
0.351,-0.323,-14154
0.352,-0.335,-14154
0.353,-0.346,-14154
0.354,-0.346,-14154
0.355,-0.346,-14154
0.356,-0.344,-14154
0.357,-0.341,-14154
0.358,-0.331,-14154
0.359,-0.314,-14154
0.360,-0.289,-14164
0.361,-0.270,-14164
0.362,-0.274,-14164
0.363,-0.271,-14164
0.364,-0.275,-14164
0.365,-0.284,-14164
0.366,-0.294,-14164
0.367,-0.309,-14164
0.368,-0.326,-14164
0.369,-0.344,-14164
0.370,-0.356,-14164
0.371,-0.364,-14164
0.372,-0.366,-14164
0.373,-0.364,-14164
0.374,-0.356,-14164
0.375,-0.352,-14164
0.376,-0.341,-14164
0.377,-0.328,-14164
0.378,-0.309,-14162
0.379,-0.295,-14162
0.380,-0.271,-14162
0.381,-0.271,-14162
0.382,-0.270,-14162
0.383,-0.274,-14162
0.384,-0.282,-14162
0.385,-0.290,-14162
0.386,-0.302,-14162
0.387,-0.310,-14158
0.388,-0.321,-14158
0.389,-0.329,-14158
0.390,-0.330,-14158
0.391,-0.335,-14158
0.392,-0.330,-14158
0.393,-0.324,-14158
0.394,-0.311,-14158
0.395,-0.301,-14158
0.396,-0.291,-14158
0.397,-0.274,-14191
0.398,-0.255,-14191
0.399,-0.247,-14191
0.400,-0.229,-14191
0.401,-0.231,-14191
0.402,-0.244,-14191
0.403,-0.249,-14191
0.404,-0.254,-14191
0.405,-0.266,-14191
0.406,-0.284,-14186
0.407,-0.302,-14186
0.408,-0.312,-14186
0.409,-0.326,-14186
0.410,-0.331,-14186
0.411,-0.330,-14186
0.412,-0.326,-14186
0.413,-0.312,-14186
0.414,-0.290,-14186
0.415,-0.269,-14198
0.416,-0.246,-14198
0.417,-0.230,-14198
0.418,-0.225,-14198
0.419,-0.219,-14198
0.420,-0.231,-14198
0.421,-0.244,-14198
0.422,-0.256,-14198
0.423,-0.271,-14252
0.424,-0.289,-14252
0.425,-0.306,-14252
0.426,-0.311,-14252
0.427,-0.325,-14252
0.428,-0.321,-14252
0.429,-0.321,-14252
0.430,-0.307,-14252
0.431,-0.296,-14252
0.432,-0.282,-14252
0.433,-0.261,-14265
0.434,-0.246,-14265
0.435,-0.229,-14265
0.436,-0.223,-14265
0.437,-0.212,-14265
0.438,-0.209,-14265
0.439,-0.211,-14265
0.440,-0.229,-14265
0.441,-0.246,-14265
0.442,-0.264,-14251
0.443,-0.274,-14251
0.444,-0.287,-14251
0.445,-0.292,-14251
0.446,-0.302,-14251
0.447,-0.299,-14251
0.448,-0.289,-14251
0.449,-0.274,-14251
0.450,-0.266,-14251
0.451,-0.246,-14251
0.452,-0.231,-14295
0.453,-0.216,-14295
0.454,-0.204,-14295
0.455,-0.194,-14295
0.456,-0.191,-14295
0.457,-0.189,-14295
0.458,-0.194,-14295
0.459,-0.206,-14295
0.460,-0.226,-14295
0.461,-0.242,-14299
0.462,-0.254,-14299
0.463,-0.266,-14299
0.464,-0.273,-14299
0.465,-0.276,-14299
0.466,-0.271,-14299
0.467,-0.263,-14299
0.468,-0.246,-14299
0.469,-0.229,-14299
0.470,-0.207,-14299
0.471,-0.189,-14294
0.472,-0.174,-14294
0.473,-0.161,-14294
0.474,-0.150,-14294
0.475,-0.141,-14294
0.476,-0.142,-14294
0.477,-0.147,-14294
0.478,-0.161,-14294
0.479,-0.169,-14294
0.480,-0.196,-14299
0.481,-0.228,-14299
0.482,-0.244,-14299
0.483,-0.244,-14299
0.484,-0.242,-14299
0.485,-0.230,-14299
0.486,-0.226,-14299
0.487,-0.209,-14299
0.488,-0.191,-14299
0.489,-0.180,-14316
0.490,-0.168,-14316
0.491,-0.161,-14316
0.492,-0.150,-14316
0.493,-0.146,-14316
0.494,-0.146,-14316
0.495,-0.150,-14316
0.496,-0.166,-14316
0.497,-0.181,-14316
0.498,-0.193,-14316
0.499,-0.209,-14315
0.500,-0.244,-14315
0.501,-0.249,-14315
0.502,-0.254,-14315
0.503,-0.251,-14315
0.504,-0.251,-14315
0.505,-0.241,-14315
0.506,-0.225,-14315
0.507,-0.214,-14315
0.508,-0.203,-14312
0.509,-0.191,-14312
0.510,-0.184,-14312
0.511,-0.172,-14312
0.512,-0.171,-14312
0.513,-0.174,-14312
0.514,-0.185,-14312
0.515,-0.191,-14312
0.516,-0.209,-14312
0.517,-0.224,-14312
0.518,-0.246,-14312
0.519,-0.263,-14329
0.520,-0.291,-14329
0.521,-0.299,-14329
0.522,-0.304,-14329
0.523,-0.301,-14329
0.524,-0.294,-14329
0.525,-0.274,-14329
0.526,-0.260,-14329
0.527,-0.246,-14329
0.528,-0.224,-14324
0.529,-0.206,-14324
0.530,-0.191,-14324
0.531,-0.182,-14324
0.532,-0.176,-14324
0.533,-0.176,-14324
0.534,-0.180,-14324
0.535,-0.189,-14324
0.536,-0.206,-14324
0.537,-0.223,-14324
0.538,-0.244,-14390
0.539,-0.253,-14390
0.540,-0.271,-14390
0.541,-0.274,-14390
0.542,-0.269,-14390
0.543,-0.266,-14390
0.544,-0.251,-14390
0.545,-0.241,-14390
0.546,-0.226,-14390
0.547,-0.209,-14356
0.548,-0.194,-14356
0.549,-0.190,-14356
0.550,-0.184,-14356
0.551,-0.182,-14356
0.552,-0.189,-14356
0.553,-0.195,-14356
0.554,-0.207,-14356
0.555,-0.226,-14356
0.556,-0.251,-14356
0.557,-0.269,-14362
0.558,-0.287,-14362
0.559,-0.304,-14362
0.560,-0.304,-14362
0.561,-0.299,-14362
0.562,-0.286,-14362
0.563,-0.266,-14362
0.564,-0.249,-14362
0.565,-0.226,-14362
0.566,-0.209,-14375
0.567,-0.190,-14375
0.568,-0.176,-14375
0.569,-0.169,-14375
0.570,-0.166,-14375
0.571,-0.171,-14375
0.572,-0.185,-14375
0.573,-0.194,-14375
0.574,-0.209,-14375
0.575,-0.224,-14375
0.576,-0.241,-14370
0.577,-0.251,-14370
0.578,-0.264,-14370
0.579,-0.266,-14370
0.580,-0.269,-14370
0.581,-0.264,-14370
0.582,-0.254,-14370
0.583,-0.241,-14370
0.584,-0.226,-14370
0.585,-0.214,-14374
0.586,-0.206,-14374
0.587,-0.196,-14374
0.588,-0.194,-14374
0.589,-0.195,-14374
0.590,-0.204,-14374
0.591,-0.212,-14374
0.592,-0.229,-14374
0.593,-0.246,-14374
0.594,-0.265,-14374
0.595,-0.276,-14361
0.596,-0.295,-14361
0.597,-0.311,-14361
0.598,-0.326,-14361
0.599,-0.331,-14361
0.600,-0.324,-14361
0.601,-0.311,-14361
0.602,-0.295,-14361
0.603,-0.281,-14361
0.604,-0.270,-14383
0.605,-0.254,-14383
0.606,-0.241,-14383
0.607,-0.229,-14383
0.608,-0.226,-14383
0.609,-0.231,-14383
0.610,-0.249,-14383
0.611,-0.260,-14383
0.612,-0.281,-14383
0.613,-0.291,-14383
0.614,-0.309,-14348
0.615,-0.325,-14348
0.616,-0.330,-14348
0.617,-0.333,-14348
0.618,-0.326,-14348
0.619,-0.321,-14348
0.620,-0.294,-14348
0.621,-0.271,-14348
0.622,-0.256,-14348
0.623,-0.246,-14359
0.624,-0.226,-14359
0.625,-0.216,-14359
0.626,-0.211,-14359
0.627,-0.216,-14359
0.628,-0.219,-14359
0.629,-0.231,-14359
0.630,-0.246,-14359
0.631,-0.261,-14359
0.632,-0.273,-14359
0.633,-0.289,-14350
0.634,-0.306,-14350
0.635,-0.311,-14350
0.636,-0.309,-14350
0.637,-0.307,-14350
0.638,-0.302,-14350
0.639,-0.294,-14350
0.640,-0.271,-14350
0.641,-0.263,-14372
0.642,-0.247,-14372
0.643,-0.244,-14372
0.644,-0.245,-14372
0.645,-0.250,-14372
0.646,-0.261,-14372
0.647,-0.269,-14372
0.648,-0.286,-14372
0.649,-0.297,-14372
0.650,-0.314,-14360
0.651,-0.326,-14360
0.652,-0.333,-14360
0.653,-0.334,-14360
0.654,-0.334,-14360
0.655,-0.329,-14360
0.656,-0.321,-14360
0.657,-0.302,-14360
0.658,-0.284,-14360
0.659,-0.270,-14360
0.660,-0.234,-14310
0.661,-0.217,-14310
0.662,-0.219,-14310
0.663,-0.225,-14310
0.664,-0.231,-14310
0.665,-0.246,-14310
0.666,-0.261,-14310
0.667,-0.274,-14310
0.668,-0.289,-14310
0.669,-0.306,-14310
0.670,-0.321,-14310
0.671,-0.331,-14310
0.672,-0.333,-14310
0.673,-0.331,-14310
0.674,-0.321,-14310
0.675,-0.306,-14310
0.676,-0.294,-14310
0.677,-0.274,-14310
0.678,-0.261,-14323
0.679,-0.250,-14323
0.680,-0.228,-14323
0.681,-0.229,-14323
0.682,-0.231,-14323
0.683,-0.235,-14323
0.684,-0.250,-14323
0.685,-0.261,-14323
0.686,-0.269,-14323
0.687,-0.284,-14319
0.688,-0.296,-14319
0.689,-0.305,-14319
0.690,-0.314,-14319
0.691,-0.321,-14319
0.692,-0.311,-14319
0.693,-0.304,-14319
0.694,-0.291,-14319
0.695,-0.269,-14319
0.696,-0.249,-14319
0.697,-0.226,-14326
0.698,-0.209,-14326
0.699,-0.191,-14326
0.700,-0.172,-14326
0.701,-0.174,-14326
0.702,-0.176,-14326
0.703,-0.184,-14326
0.704,-0.191,-14326
0.705,-0.206,-14326
0.706,-0.214,-14318
0.707,-0.230,-14318
0.708,-0.247,-14318
0.709,-0.261,-14318
0.710,-0.263,-14318
0.711,-0.260,-14318
0.712,-0.249,-14318
0.713,-0.231,-14318
0.714,-0.221,-14318
0.715,-0.201,-14318
0.716,-0.189,-14322
0.717,-0.171,-14322
0.718,-0.163,-14322
0.719,-0.149,-14322
0.720,-0.144,-14322
0.721,-0.145,-14322
0.722,-0.161,-14322
0.723,-0.168,-14322
0.724,-0.172,-14322
0.725,-0.181,-14322
0.726,-0.184,-14322
0.727,-0.186,-14322
0.728,-0.174,-14322
0.729,-0.169,-14322
0.730,-0.164,-14322
0.731,-0.124,-14322
0.732,-0.126,-14322
0.733,-0.114,-14322
0.734,-0.104,-14322
0.735,-0.094,-14322
0.736,-0.089,-14322
0.737,-0.090,-14322
0.738,-0.096,-14322
0.739,-0.106,-14322
0.740,-0.138,-14322
0.741,-0.161,-14322
0.742,-0.171,-14322
0.743,-0.188,-14322
0.744,-0.204,-14332
0.745,-0.214,-14332
0.746,-0.221,-14332
0.747,-0.224,-14332
0.748,-0.221,-14332
0.749,-0.214,-14332
0.750,-0.206,-14332
0.751,-0.196,-14332
0.752,-0.180,-14332
0.753,-0.169,-14332
0.754,-0.161,-14313
0.755,-0.149,-14313
0.756,-0.145,-14313
0.757,-0.146,-14313
0.758,-0.163,-14313
0.759,-0.175,-14313
0.760,-0.207,-14313
0.761,-0.210,-14313
0.762,-0.231,-14313
0.763,-0.249,-14329
0.764,-0.261,-14329
0.765,-0.265,-14329
0.766,-0.266,-14329
0.767,-0.269,-14329
0.768,-0.264,-14329
0.769,-0.250,-14329
0.770,-0.234,-14329
0.771,-0.215,-14329
0.772,-0.196,-14329
0.773,-0.184,-14307
0.774,-0.170,-14307
0.775,-0.169,-14307
0.776,-0.170,-14307
0.777,-0.174,-14307
0.778,-0.174,-14307
0.779,-0.189,-14307
0.780,-0.224,-14307
0.781,-0.244,-14307
0.782,-0.254,-14320
0.783,-0.266,-14320
0.784,-0.269,-14320
0.785,-0.266,-14320
0.786,-0.263,-14320
0.787,-0.253,-14320
0.788,-0.244,-14320
0.789,-0.230,-14320
0.790,-0.216,-14320
0.791,-0.196,-14320
0.792,-0.186,-14319
0.793,-0.174,-14319
0.794,-0.169,-14319
0.795,-0.166,-14319
0.796,-0.171,-14319
0.797,-0.176,-14319
0.798,-0.186,-14319
0.799,-0.194,-14319
0.800,-0.221,-14309
0.801,-0.229,-14309
0.802,-0.234,-14309
0.803,-0.230,-14309
0.804,-0.223,-14309
0.805,-0.212,-14309
0.806,-0.201,-14309
0.807,-0.184,-14309
0.808,-0.165,-14309
0.809,-0.145,-14309
0.810,-0.131,-14283
0.811,-0.124,-14283
0.812,-0.121,-14283
0.813,-0.126,-14283
0.814,-0.131,-14283
0.815,-0.146,-14283
0.816,-0.164,-14283
0.817,-0.185,-14283
0.818,-0.204,-14283
0.819,-0.217,-14283
0.820,-0.246,-14283
0.821,-0.241,-14283
0.822,-0.186,-14283
0.823,-0.221,-14283
0.824,-0.206,-14283
0.825,-0.186,-14283
0.826,-0.171,-14283
0.827,-0.161,-14283
0.828,-0.145,-14268
0.829,-0.136,-14268
0.830,-0.130,-14268
0.831,-0.131,-14268
0.832,-0.138,-14268
0.833,-0.149,-14268
0.834,-0.172,-14268
0.835,-0.201,-14268
0.836,-0.221,-14268
0.837,-0.255,-14268
0.838,-0.274,-14251
0.839,-0.296,-14251
0.840,-0.329,-14251
0.841,-0.330,-14251
0.842,-0.330,-14251
0.843,-0.328,-14251
0.844,-0.309,-14251
0.845,-0.291,-14251
0.846,-0.269,-14251
0.847,-0.244,-14248
0.848,-0.204,-14248
0.849,-0.166,-14248
0.850,-0.124,-14248
0.851,-0.081,-14248
0.852,-0.031,-14248
0.853,0.024,-14248
0.854,0.077,-14248
0.855,0.147,-14248
0.856,0.229,-14248
0.857,0.306,-14236
0.858,0.399,-14236
0.859,0.514,-14236
0.860,0.784,-14236
0.861,0.904,-14236
0.862,1.054,-14236
0.863,1.210,-14236
0.864,1.391,-14236
0.865,1.576,-14236
0.866,1.775,-14232
0.867,1.959,-14232
0.868,2.116,-14232
0.869,2.225,-14232
0.870,2.276,-14232
0.871,2.264,-14232
0.872,2.206,-14232
0.873,2.104,-14232
0.874,1.969,-14232
0.875,1.819,-14232
0.876,1.659,-14251
0.877,1.509,-14251
0.878,1.359,-14251
0.879,1.196,-14251
0.880,0.864,-14251
0.881,0.746,-14251
0.882,0.584,-14251
0.883,0.434,-14251
0.884,0.309,-14251
0.885,0.211,-14219
0.886,0.066,-14219
0.887,-0.031,-14219
0.888,-0.128,-14219
0.889,-0.214,-14219
0.890,-0.304,-14219
0.891,-0.384,-14219
0.892,-0.453,-14219
0.893,-0.514,-14219
0.894,-0.569,-14219
0.895,-0.606,-14210
0.896,-0.632,-14210
0.897,-0.655,-14210
0.898,-0.662,-14210
0.899,-0.650,-14210
0.900,-0.601,-14210
0.901,-0.571,-14210
0.902,-0.534,-14210
0.903,-0.501,-14210
0.904,-0.459,-14188
0.905,-0.434,-14188
0.906,-0.411,-14188
0.907,-0.394,-14188
0.908,-0.385,-14188
0.909,-0.383,-14188
0.910,-0.384,-14188
0.911,-0.385,-14188
0.912,-0.394,-14188
0.913,-0.406,-14188
0.914,-0.417,-14197
0.915,-0.424,-14197
0.916,-0.434,-14197
0.917,-0.436,-14197
0.918,-0.468,-14197
0.919,-0.429,-14197
0.920,-0.407,-14197
0.921,-0.389,-14197
0.922,-0.376,-14197
0.923,-0.366,-14161
0.924,-0.351,-14161
0.925,-0.347,-14161
0.926,-0.347,-14161
0.927,-0.346,-14161
0.928,-0.351,-14161
0.929,-0.364,-14161
0.930,-0.369,-14161
0.931,-0.384,-14161
0.932,-0.401,-14161
0.933,-0.415,-14179
0.934,-0.425,-14179
0.935,-0.430,-14179
0.936,-0.430,-14179
0.937,-0.429,-14179
0.938,-0.416,-14179
0.939,-0.406,-14179
0.940,-0.374,-14179
0.941,-0.364,-14179
0.942,-0.354,-14151
0.943,-0.350,-14151
0.944,-0.346,-14151
0.945,-0.344,-14151
0.946,-0.349,-14151
0.947,-0.351,-14151
0.948,-0.386,-14151
0.949,-0.383,-14151
0.950,-0.400,-14151
0.951,-0.411,-14151
0.952,-0.421,-14175
0.953,-0.431,-14175
0.954,-0.434,-14175
0.955,-0.431,-14175
0.956,-0.425,-14175
0.957,-0.411,-14175
0.958,-0.389,-14175
0.959,-0.369,-14175
0.960,-0.311,-14175
0.961,-0.291,-14175
0.962,-0.276,-14175
0.963,-0.266,-14175
0.964,-0.266,-14175
0.965,-0.276,-14175
0.966,-0.289,-14175
0.967,-0.302,-14175
0.968,-0.328,-14175
0.969,-0.349,-14175
0.970,-0.364,-14175
0.971,-0.374,-14144
0.972,-0.383,-14144
0.973,-0.375,-14144
0.974,-0.371,-14144
0.975,-0.364,-14144
0.976,-0.350,-14144
0.977,-0.336,-14144
0.978,-0.324,-14144
0.979,-0.306,-14144
0.980,-0.274,-14146
0.981,-0.251,-14146
0.982,-0.250,-14146
0.983,-0.251,-14146
0.984,-0.261,-14146
0.985,-0.271,-14146
0.986,-0.284,-14146
0.987,-0.296,-14146
0.988,-0.311,-14146
0.989,-0.326,-14141
0.990,-0.336,-14141
0.991,-0.344,-14141
0.992,-0.344,-14141
0.993,-0.343,-14141
0.994,-0.334,-14141
0.995,-0.324,-14141
0.996,-0.306,-14141
0.997,-0.285,-14141
0.998,-0.270,-14141
0.999,-0.261,-14141
1.000,-0.244,-14143
1.001,-0.249,-14143
1.002,-0.261,-14143
1.003,-0.271,-14143
1.004,-0.287,-14143
1.005,-0.304,-14143
1.006,-0.311,-14143
1.007,-0.336,-14143
1.008,-0.346,-14129
1.009,-0.355,-14129
1.010,-0.354,-14129
1.011,-0.351,-14129
1.012,-0.346,-14129
1.013,-0.331,-14129
1.014,-0.311,-14129
1.015,-0.296,-14129
1.016,-0.286,-14129
1.017,-0.266,-14129
1.018,-0.256,-14126
1.019,-0.247,-14126
1.020,-0.249,-14126
1.021,-0.250,-14126
1.022,-0.256,-14126
1.023,-0.264,-14126
1.024,-0.280,-14126
1.025,-0.282,-14126
1.026,-0.291,-14126
1.027,-0.297,-14125
1.028,-0.301,-14125
1.029,-0.296,-14125
1.030,-0.291,-14125
1.031,-0.281,-14125
1.032,-0.266,-14125
1.033,-0.254,-14125
1.034,-0.241,-14125
1.035,-0.221,-14125
1.036,-0.209,-14125
1.037,-0.201,-14119
1.038,-0.193,-14119
1.039,-0.195,-14119
1.040,-0.210,-14119
1.041,-0.182,-14119
1.042,-0.244,-14119
1.043,-0.261,-14119
1.044,-0.273,-14119
1.045,-0.287,-14119
1.046,-0.291,-14095
1.047,-0.290,-14095
1.048,-0.287,-14095
1.049,-0.274,-14095
1.050,-0.264,-14095
1.051,-0.250,-14095
1.052,-0.224,-14095
1.053,-0.207,-14095
1.054,-0.189,-14095
1.055,-0.176,-14095
1.056,-0.170,-14117
1.057,-0.164,-14117
1.058,-0.166,-14117
1.059,-0.166,-14117
1.060,-0.182,-14117
1.061,-0.191,-14117
1.062,-0.204,-14117
1.063,-0.211,-14117
1.064,-0.214,-14117
1.065,-0.224,-14109
1.066,-0.224,-14109
1.067,-0.216,-14109
1.068,-0.204,-14109
1.069,-0.186,-14109
1.070,-0.169,-14109
1.071,-0.106,-14109
1.072,-0.129,-14109
1.073,-0.115,-14109
1.074,-0.101,-14119
1.075,-0.091,-14119
1.076,-0.084,-14119
1.077,-0.084,-14119
1.078,-0.089,-14119
1.079,-0.096,-14119
1.080,-0.124,-14119
1.081,-0.136,-14119
1.082,-0.149,-14119
1.083,-0.161,-14167
1.084,-0.169,-14167
1.085,-0.174,-14167
1.086,-0.174,-14167
1.087,-0.175,-14167
1.088,-0.170,-14167
1.089,-0.163,-14167
1.090,-0.146,-14167
1.091,-0.145,-14167
1.092,-0.135,-14167
1.093,-0.134,-14208
1.094,-0.131,-14208
1.095,-0.134,-14208
1.096,-0.145,-14208
1.097,-0.150,-14208
1.098,-0.164,-14208
1.099,-0.175,-14208
1.100,-0.196,-14208
1.101,-0.209,-14208
1.102,-0.212,-14232
1.103,-0.207,-14232
1.104,-0.204,-14232
1.105,-0.193,-14232
1.106,-0.184,-14232
1.107,-0.169,-14232
1.108,-0.147,-14232
1.109,-0.134,-14232
1.110,-0.124,-14232
1.111,-0.114,-14287
1.112,-0.110,-14287
1.113,-0.105,-14287
1.114,-0.106,-14287
1.115,-0.109,-14287
1.116,-0.124,-14287
1.117,-0.134,-14287
1.118,-0.146,-14287
1.119,-0.166,-14287
1.120,-0.196,-14340
1.121,-0.207,-14340
1.122,-0.211,-14340
1.123,-0.211,-14340
1.124,-0.206,-14340
1.125,-0.196,-14340
1.126,-0.189,-14340
1.127,-0.186,-14340
1.128,-0.181,-14340
1.129,-0.171,-14346
1.130,-0.168,-14346
1.131,-0.169,-14346
1.132,-0.171,-14346
1.133,-0.182,-14346
1.134,-0.196,-14346
1.135,-0.216,-14346
1.136,-0.241,-14346
1.137,-0.263,-14346
1.138,-0.286,-14346
1.139,-0.306,-14362
1.140,-0.341,-14362
1.141,-0.344,-14362
1.142,-0.346,-14362
1.143,-0.343,-14362
1.144,-0.326,-14362
1.145,-0.305,-14362
1.146,-0.290,-14362
1.147,-0.280,-14362
1.148,-0.271,-14410
1.149,-0.271,-14410
1.150,-0.271,-14410
1.151,-0.284,-14410
1.152,-0.295,-14410
1.153,-0.311,-14410
1.154,-0.331,-14410
1.155,-0.354,-14410
1.156,-0.374,-14410
1.157,-0.394,-14410
1.158,-0.411,-14459
1.159,-0.426,-14459
1.160,-0.441,-14459
1.161,-0.436,-14459
1.162,-0.431,-14459
1.163,-0.470,-14459
1.164,-0.405,-14459
1.165,-0.400,-14459
1.166,-0.381,-14459
1.167,-0.366,-14415
1.168,-0.362,-14415
1.169,-0.356,-14415
1.170,-0.356,-14415
1.171,-0.364,-14415
1.172,-0.366,-14415
1.173,-0.374,-14415
1.174,-0.386,-14415
1.175,-0.401,-14415
1.176,-0.414,-14415
1.177,-0.421,-14437
1.178,-0.426,-14437
1.179,-0.431,-14437
1.180,-0.431,-14437
1.181,-0.426,-14437
1.182,-0.406,-14437
1.183,-0.391,-14437
1.184,-0.372,-14437
1.185,-0.362,-14437
1.186,-0.349,-14449
1.187,-0.344,-14449
1.188,-0.340,-14449
1.189,-0.340,-14449
1.190,-0.347,-14449
1.191,-0.354,-14449
1.192,-0.369,-14449
1.193,-0.384,-14449
1.194,-0.400,-14449
1.195,-0.381,-14449
1.196,-0.421,-14468
1.197,-0.424,-14468
1.198,-0.414,-14468
1.199,-0.406,-14468
1.200,-0.371,-14468
1.201,-0.361,-14468
1.202,-0.349,-14468
1.203,-0.326,-14468
1.204,-0.320,-14468
1.205,-0.305,-14480
1.206,-0.299,-14480
1.207,-0.304,-14480
1.208,-0.302,-14480
1.209,-0.309,-14480
1.210,-0.325,-14480
1.211,-0.336,-14480
1.212,-0.349,-14480
1.213,-0.364,-14480
1.214,-0.370,-14480
1.215,-0.378,-14495
1.216,-0.381,-14495
1.217,-0.381,-14495
1.218,-0.375,-14495
1.219,-0.369,-14495
1.220,-0.341,-14495
1.221,-0.330,-14495
1.222,-0.311,-14495
1.223,-0.292,-14495
1.224,-0.284,-14495
1.225,-0.274,-14523
1.226,-0.271,-14523
1.227,-0.271,-14523
1.228,-0.276,-14523
1.229,-0.284,-14523
1.230,-0.295,-14523
1.231,-0.309,-14523
1.232,-0.324,-14523
1.233,-0.334,-14523
1.234,-0.347,-14523
1.235,-0.354,-14528
1.236,-0.356,-14528
1.237,-0.354,-14528
1.238,-0.349,-14528
1.239,-0.333,-14528
1.240,-0.289,-14528
1.241,-0.276,-14528
1.242,-0.261,-14528
1.243,-0.246,-14528
1.244,-0.241,-14550
1.245,-0.241,-14550
1.246,-0.244,-14550
1.247,-0.254,-14550
1.248,-0.266,-14550
1.249,-0.284,-14550
1.250,-0.301,-14550
1.251,-0.324,-14550
1.252,-0.336,-14550
1.253,-0.351,-14550
1.254,-0.349,-14557
1.255,-0.341,-14557
1.256,-0.330,-14557
1.257,-0.311,-14557
1.258,-0.292,-14557
1.259,-0.274,-14557
1.260,-0.229,-14557
1.261,-0.212,-14557
1.262,-0.201,-14557
1.263,-0.196,-14573
1.264,-0.203,-14573
1.265,-0.207,-14573
1.266,-0.219,-14573
1.267,-0.241,-14573
1.268,-0.256,-14573
1.269,-0.273,-14573
1.270,-0.296,-14573
1.271,-0.309,-14573
1.272,-0.326,-14573
1.273,-0.331,-14606
1.274,-0.329,-14606
1.275,-0.321,-14606
1.276,-0.305,-14606
1.277,-0.294,-14606
1.278,-0.276,-14606
1.279,-0.264,-14606
1.280,-0.224,-14606
1.281,-0.216,-14606
1.282,-0.209,-14601
1.283,-0.209,-14601
1.284,-0.209,-14601
1.285,-0.217,-14601
1.286,-0.229,-14601
1.287,-0.244,-14601
1.288,-0.254,-14601
1.289,-0.270,-14601
1.290,-0.281,-14601
1.291,-0.291,-14601
1.292,-0.296,-14581
1.293,-0.297,-14581
1.294,-0.291,-14581
1.295,-0.284,-14581
1.296,-0.269,-14581
1.297,-0.254,-14581
1.298,-0.244,-14581
1.299,-0.221,-14581
1.300,-0.194,-14581
1.301,-0.196,-14599
1.302,-0.195,-14599
1.303,-0.209,-14599
1.304,-0.223,-14599
1.305,-0.246,-14599
1.306,-0.264,-14599
1.307,-0.280,-14599
1.308,-0.290,-14599
1.309,-0.299,-14599
1.310,-0.304,-14576
1.311,-0.306,-14576
1.312,-0.295,-14576
1.313,-0.289,-14576
1.314,-0.285,-14576
1.315,-0.268,-14576
1.316,-0.254,-14576
1.317,-0.244,-14576
1.318,-0.226,-14576
1.319,-0.225,-14576
1.320,-0.226,-14573
1.321,-0.246,-14573
1.322,-0.261,-14573
1.323,-0.282,-14573
1.324,-0.296,-14573
1.325,-0.321,-14573
1.326,-0.334,-14573
1.327,-0.344,-14573
1.328,-0.350,-14581
1.329,-0.350,-14581
1.330,-0.349,-14581
1.331,-0.336,-14581
1.332,-0.326,-14581
1.333,-0.310,-14581
1.334,-0.299,-14581
1.335,-0.286,-14581
1.336,-0.281,-14581
1.337,-0.264,-14581
1.338,-0.263,-14567
1.339,-0.264,-14567
1.340,-0.286,-14567
1.341,-0.304,-14567
1.342,-0.329,-14567
1.343,-0.349,-14567
1.344,-0.366,-14567
1.345,-0.381,-14567
1.346,-0.389,-14567
1.347,-0.391,-14594
1.348,-0.391,-14594
1.349,-0.386,-14594
1.350,-0.379,-14594
1.351,-0.357,-14594
1.352,-0.336,-14594
1.353,-0.309,-14594
1.354,-0.291,-14594
1.355,-0.275,-14594
1.356,-0.265,-14594
1.357,-0.261,-14572
1.358,-0.264,-14572
1.359,-0.268,-14572
1.360,-0.310,-14572
1.361,-0.312,-14572
1.362,-0.334,-14572
1.363,-0.352,-14572
1.364,-0.366,-14572
1.365,-0.372,-14572
1.366,-0.386,-14573
1.367,-0.388,-14573
1.368,-0.389,-14573
1.369,-0.386,-14573
1.370,-0.384,-14573
1.371,-0.375,-14573
1.372,-0.369,-14573
1.373,-0.362,-14573
1.374,-0.351,-14573
1.375,-0.350,-14573
1.376,-0.347,-14632
1.377,-0.349,-14632
1.378,-0.351,-14632
1.379,-0.362,-14632
1.380,-0.391,-14632
1.381,-0.391,-14632
1.382,-0.424,-14632
1.383,-0.427,-14632
1.384,-0.443,-14632
1.385,-0.443,-14633
1.386,-0.440,-14633
1.387,-0.430,-14633
1.388,-0.416,-14633
1.389,-0.405,-14633
1.390,-0.386,-14633
1.391,-0.372,-14633
1.392,-0.356,-14633
1.393,-0.346,-14633
1.394,-0.336,-14633
1.395,-0.331,-14634
1.396,-0.331,-14634
1.397,-0.336,-14634
1.398,-0.341,-14634
1.399,-0.351,-14634
1.400,-0.376,-14634
1.401,-0.390,-14634
1.402,-0.404,-14634
1.403,-0.409,-14634
1.404,-0.410,-14642
1.405,-0.409,-14642
1.406,-0.403,-14642
1.407,-0.383,-14642
1.408,-0.366,-14642
1.409,-0.346,-14642
1.410,-0.326,-14642
1.411,-0.306,-14642
1.412,-0.291,-14642
1.413,-0.285,-14642
1.414,-0.284,-14643
1.415,-0.289,-14643
1.416,-0.296,-14643
1.417,-0.307,-14643
1.418,-0.328,-14643
1.419,-0.344,-14643
1.420,-0.372,-14643
1.421,-0.381,-14643
1.422,-0.388,-14643
1.423,-0.390,-14646
1.424,-0.394,-14646
1.425,-0.386,-14646
1.426,-0.376,-14646
1.427,-0.370,-14646
1.428,-0.356,-14646
1.429,-0.346,-14646
1.430,-0.334,-14646
1.431,-0.326,-14646
1.432,-0.305,-14646
1.433,-0.299,-14640
1.434,-0.297,-14640
1.435,-0.301,-14640
1.436,-0.307,-14640
1.437,-0.324,-14640
1.438,-0.329,-14640
1.439,-0.341,-14640
1.440,-0.356,-14640
1.441,-0.364,-14640
1.442,-0.366,-14628
1.443,-0.364,-14628
1.444,-0.354,-14628
1.445,-0.349,-14628
1.446,-0.334,-14628
1.447,-0.312,-14628
1.448,-0.296,-14628
1.449,-0.282,-14628
1.450,-0.269,-14628
1.451,-0.255,-14628
1.452,-0.253,-14637
1.453,-0.254,-14637
1.454,-0.256,-14637
1.455,-0.268,-14637
1.456,-0.284,-14637
1.457,-0.301,-14637
1.458,-0.314,-14637
1.459,-0.333,-14637
1.460,-0.346,-14637
1.461,-0.346,-14637
1.462,-0.336,-14636
1.463,-0.328,-14636
1.464,-0.306,-14636
1.465,-0.281,-14636
1.466,-0.261,-14636
1.467,-0.245,-14636
1.468,-0.226,-14636
1.469,-0.215,-14636
1.470,-0.209,-14636
1.471,-0.214,-14627
1.472,-0.244,-14627
1.473,-0.253,-14627
1.474,-0.323,-14627
1.475,-0.275,-14627
1.476,-0.286,-14627
1.477,-0.294,-14627
1.478,-0.301,-14627
1.479,-0.306,-14627
1.480,-0.302,-14649
1.481,-0.281,-14649
1.482,-0.270,-14649
1.483,-0.260,-14649
1.484,-0.234,-14649
1.485,-0.215,-14649
1.486,-0.203,-14649
1.487,-0.186,-14649
1.488,-0.176,-14660
1.489,-0.176,-14660
1.490,-0.181,-14660
1.491,-0.185,-14660
1.492,-0.194,-14660
1.493,-0.211,-14660
1.494,-0.225,-14660
1.495,-0.244,-14660
1.496,-0.254,-14660
1.497,-0.264,-14660
1.498,-0.268,-14666
1.499,-0.270,-14666
1.500,-0.261,-14666
1.501,-0.258,-14666
1.502,-0.254,-14666
1.503,-0.250,-14666
1.504,-0.241,-14666
1.505,-0.234,-14666
1.506,-0.229,-14666
1.507,-0.231,-14663
1.508,-0.229,-14663
1.509,-0.231,-14663
1.510,-0.246,-14663
1.511,-0.254,-14663
1.512,-0.271,-14663
1.513,-0.292,-14663
1.514,-0.310,-14663
1.515,-0.330,-14663
1.516,-0.344,-14663
1.517,-0.355,-14651
1.518,-0.356,-14651
1.519,-0.364,-14651
1.520,-0.356,-14651
1.521,-0.351,-14651
1.522,-0.347,-14651
1.523,-0.344,-14651
1.524,-0.334,-14651
1.525,-0.329,-14651
1.526,-0.330,-14649
1.527,-0.329,-14649
1.528,-0.331,-14649
1.529,-0.344,-14649
1.530,-0.351,-14649
1.531,-0.364,-14649
1.532,-0.376,-14649
1.533,-0.386,-14649
1.534,-0.401,-14649
1.535,-0.405,-14649
1.536,-0.406,-14656
1.537,-0.409,-14656
1.538,-0.401,-14656
1.539,-0.391,-14656
1.540,-0.361,-14656
1.541,-0.349,-14656
1.542,-0.328,-14656
1.543,-0.311,-14656
1.544,-0.304,-14656
1.545,-0.301,-14633
1.546,-0.306,-14633
1.547,-0.311,-14633
1.548,-0.326,-14633
1.549,-0.344,-14633
1.550,-0.354,-14633
1.551,-0.366,-14633
1.552,-0.379,-14633
1.553,-0.384,-14633
1.554,-0.389,-14633
1.555,-0.388,-14625
1.556,-0.384,-14625
1.557,-0.375,-14625
1.558,-0.366,-14625
1.559,-0.351,-14625
1.560,-0.309,-14625
1.561,-0.292,-14625
1.562,-0.281,-14625
1.563,-0.269,-14625
1.564,-0.264,-14631
1.565,-0.265,-14631
1.566,-0.269,-14631
1.567,-0.281,-14631
1.568,-0.296,-14631
1.569,-0.311,-14631
1.570,-0.334,-14631
1.571,-0.346,-14631
1.572,-0.356,-14631
1.573,-0.364,-14631
1.574,-0.365,-14612
1.575,-0.356,-14612
1.576,-0.344,-14612
1.577,-0.328,-14612
1.578,-0.309,-14612
1.579,-0.290,-14612
1.580,-0.261,-14612
1.581,-0.254,-14612
1.582,-0.249,-14612
1.583,-0.258,-14622
1.584,-0.266,-14622
1.585,-0.281,-14622
1.586,-0.296,-14622
1.587,-0.312,-14622
1.588,-0.336,-14622
1.589,-0.350,-14622
1.590,-0.364,-14622
1.591,-0.366,-14622
1.592,-0.366,-14622
1.593,-0.356,-14602
1.594,-0.349,-14602
1.595,-0.330,-14602
1.596,-0.309,-14602
1.597,-0.289,-14602
1.598,-0.269,-14602
1.599,-0.249,-14602
1.600,-0.217,-14602
1.601,-0.224,-14602
1.602,-0.229,-14600
1.603,-0.249,-14600
1.604,-0.274,-14600
1.605,-0.295,-14600
1.606,-0.324,-14600
1.607,-0.347,-14600
1.608,-0.370,-14600
1.609,-0.401,-14600
1.610,-0.415,-14600
1.611,-0.429,-14600
1.612,-0.429,-14619
1.613,-0.425,-14619
1.614,-0.411,-14619
1.615,-0.386,-14619
1.616,-0.351,-14619
1.617,-0.309,-14619
1.618,-0.263,-14619
1.619,-0.204,-14619
1.620,-0.071,-14619
1.621,-0.016,-14638
1.622,0.056,-14638
1.623,0.129,-14638
1.624,0.206,-14638
1.625,0.294,-14638
1.626,0.380,-14638
1.627,0.476,-14638
1.628,0.583,-14638
1.629,0.689,-14638
1.630,0.809,-14638
1.631,0.934,-14598
1.632,1.071,-14598
1.633,1.229,-14598
1.634,1.407,-14598
1.635,1.595,-14598
1.636,1.786,-14598
1.637,1.968,-14598
1.638,2.111,-14598
1.639,2.209,-14598
1.640,2.219,-14593
1.641,2.027,-14593
1.642,1.876,-14593
1.643,1.711,-14593
1.644,1.534,-14593
1.645,1.349,-14593
1.646,1.159,-14593
1.647,0.978,-14593
1.648,0.799,-14593
1.649,0.626,-14603
1.650,0.468,-14603
1.651,0.328,-14603
1.652,0.195,-14603
1.653,0.079,-14603
1.654,-0.016,-14603
1.655,-0.101,-14603
1.656,-0.184,-14603
1.657,-0.251,-14603
1.658,-0.307,-14603
1.659,-0.371,-14606
1.660,-0.474,-14606
1.661,-0.516,-14606
1.662,-0.547,-14606
1.663,-0.576,-14606
1.664,-0.594,-14606
1.665,-0.606,-14606
1.666,-0.606,-14606
1.667,-0.606,-14606
1.668,-0.591,-14604
1.669,-0.570,-14604
1.670,-0.544,-14604
1.671,-0.511,-14604
1.672,-0.474,-14604
1.673,-0.446,-14604
1.674,-0.414,-14604
1.675,-0.381,-14604
1.676,-0.357,-14604
1.677,-0.334,-14604
1.678,-0.323,-14639
1.679,-0.320,-14639
1.680,-0.323,-14639
1.681,-0.344,-14639
1.682,-0.366,-14639
1.683,-0.372,-14639
1.684,-0.385,-14639
1.685,-0.403,-14639
1.686,-0.404,-14566
1.687,-0.391,-14566
1.688,-0.378,-14566
1.689,-0.364,-14566
1.690,-0.349,-14566
1.691,-0.334,-14566
1.692,-0.309,-14566
1.693,-0.299,-14566
1.694,-0.291,-14566
1.695,-0.285,-14566
1.696,-0.286,-14588
1.697,-0.294,-14588
1.698,-0.304,-14588
1.699,-0.320,-14588
1.700,-0.349,-14588
1.701,-0.361,-14588
1.702,-0.371,-14588
1.703,-0.376,-14588
1.704,-0.379,-14588
1.705,-0.374,-14583
1.706,-0.364,-14583
1.707,-0.346,-14583
1.708,-0.329,-14583
1.709,-0.309,-14583
1.710,-0.290,-14583
1.711,-0.271,-14583
1.712,-0.264,-14583
1.713,-0.250,-14583
1.714,-0.249,-14583
1.715,-0.244,-14617
1.716,-0.249,-14617
1.717,-0.263,-14617
1.718,-0.274,-14617
1.719,-0.291,-14617
1.720,-0.334,-14617
1.721,-0.344,-14617
1.722,-0.351,-14617
1.723,-0.354,-14617
1.724,-0.351,-14578
1.725,-0.346,-14578
1.726,-0.334,-14578
1.727,-0.326,-14578
1.728,-0.309,-14578
1.729,-0.295,-14578
1.730,-0.285,-14578
1.731,-0.271,-14578
1.732,-0.264,-14578
1.733,-0.261,-14578
1.734,-0.265,-14557
1.735,-0.273,-14557
1.736,-0.289,-14557
1.737,-0.305,-14557
1.738,-0.326,-14557
1.739,-0.335,-14557
1.740,-0.351,-14557
1.741,-0.354,-14557
1.742,-0.352,-14557
1.743,-0.343,-14569
1.744,-0.334,-14569
1.745,-0.321,-14569
1.746,-0.299,-14569
1.747,-0.281,-14569
1.748,-0.266,-14569
1.749,-0.256,-14569
1.750,-0.251,-14569
1.751,-0.249,-14569
1.752,-0.251,-14569
1.753,-0.264,-14576
1.754,-0.280,-14576
1.755,-0.294,-14576
1.756,-0.311,-14576
1.757,-0.331,-14576
1.758,-0.344,-14576
1.759,-0.354,-14576
1.760,-0.361,-14576
1.761,-0.354,-14576
1.762,-0.344,-14552
1.763,-0.325,-14552
1.764,-0.296,-14552
1.765,-0.276,-14552
1.766,-0.254,-14552
1.767,-0.226,-14552
1.768,-0.212,-14552
1.769,-0.193,-14552
1.770,-0.186,-14552
1.771,-0.176,-14552
1.772,-0.182,-14545
1.773,-0.189,-14545
1.774,-0.205,-14545
1.775,-0.219,-14545
1.776,-0.244,-14545
1.777,-0.263,-14545
1.778,-0.280,-14545
1.779,-0.287,-14545
1.780,-0.294,-14521
1.781,-0.276,-14521
1.782,-0.266,-14521
1.783,-0.214,-14521
1.784,-0.231,-14521
1.785,-0.216,-14521
1.786,-0.206,-14521
1.787,-0.196,-14521
1.788,-0.193,-14521
1.789,-0.201,-14521
1.790,-0.211,-14513
1.791,-0.221,-14513
1.792,-0.244,-14513
1.793,-0.256,-14513
1.794,-0.274,-14513
1.795,-0.291,-14513
1.796,-0.304,-14513
1.797,-0.312,-14513
1.798,-0.321,-14513
1.799,-0.320,-14513
1.800,-0.284,-14512
1.801,-0.246,-14512
1.802,-0.221,-14512
1.803,-0.203,-14512
1.804,-0.185,-14512
1.805,-0.170,-14512
1.806,-0.165,-14512
1.807,-0.165,-14512
1.808,-0.172,-14496
1.809,-0.181,-14496
1.810,-0.194,-14496
1.811,-0.211,-14496
1.812,-0.225,-14496
1.813,-0.244,-14496
1.814,-0.254,-14496
1.815,-0.258,-14496
1.816,-0.256,-14496
1.817,-0.254,-14496
1.818,-0.246,-14488
1.819,-0.226,-14488
1.820,-0.181,-14488
1.821,-0.166,-14488
1.822,-0.145,-14488
1.823,-0.131,-14488
1.824,-0.124,-14488
1.825,-0.113,-14488
1.826,-0.114,-14488
1.827,-0.121,-14481
1.828,-0.129,-14481
1.829,-0.147,-14481
1.830,-0.171,-14481
1.831,-0.188,-14481
1.832,-0.196,-14481
1.833,-0.204,-14481
1.834,-0.209,-14481
1.835,-0.203,-14481
1.836,-0.191,-14481
1.837,-0.169,-14546
1.838,-0.144,-14546
1.839,-0.116,-14546
1.840,-0.069,-14546
1.841,-0.052,-14546
1.842,-0.051,-14546
1.843,-0.035,-14546
1.844,-0.034,-14546
1.845,-0.029,-14546
1.846,-0.044,-14503
1.847,-0.055,-14503
1.848,-0.066,-14503
1.849,-0.087,-14503
1.850,-0.101,-14503
1.851,-0.114,-14503
1.852,-0.125,-14503
1.853,-0.136,-14503
1.854,-0.146,-14503
1.855,-0.144,-14503
1.856,-0.131,-14563
1.857,-0.124,-14563
1.858,-0.106,-14563
1.859,-0.091,-14563
1.860,-0.056,-14563
1.861,-0.046,-14563
1.862,-0.036,-14563
1.863,-0.029,-14563
1.864,-0.029,-14563
1.865,-0.034,-14623
1.866,-0.045,-14623
1.867,-0.056,-14623
1.868,-0.084,-14623
1.869,-0.091,-14623
1.870,-0.106,-14623
1.871,-0.116,-14623
1.872,-0.124,-14623
1.873,-0.129,-14623
1.874,-0.126,-14623
1.875,-0.116,-14636
1.876,-0.109,-14636
1.877,-0.094,-14636
1.878,-0.075,-14636
1.879,-0.059,-14636
1.880,-0.028,-14636
1.881,-0.018,-14636
1.882,-0.013,-14636
1.883,-0.006,-14636
1.884,-0.016,-14682
1.885,-0.026,-14682
1.886,-0.041,-14682
1.887,-0.059,-14682
1.888,-0.085,-14682
1.889,-0.105,-14682
1.890,-0.126,-14682
1.891,-0.144,-14682
1.892,-0.161,-14682
1.893,-0.168,-14682
1.894,-0.166,-14745
1.895,-0.154,-14745
1.896,-0.147,-14745
1.897,-0.131,-14745
1.898,-0.116,-14745
1.899,-0.109,-14745
1.900,-0.101,-14745
1.901,-0.104,-14745
1.902,-0.110,-14745
1.903,-0.126,-14794
1.904,-0.141,-14794
1.905,-0.166,-14794
1.906,-0.190,-14794
1.907,-0.209,-14794
1.908,-0.226,-14794
1.909,-0.246,-14794
1.910,-0.261,-14794
1.911,-0.274,-14794
1.912,-0.281,-14794
1.913,-0.281,-14848
1.914,-0.274,-14848
1.915,-0.270,-14848
1.916,-0.264,-14848
1.917,-0.253,-14848
1.918,-0.235,-14848
1.919,-0.229,-14848
1.920,-0.217,-14848
1.921,-0.224,-14848
1.922,-0.231,-14865
1.923,-0.254,-14865
1.924,-0.271,-14865
1.925,-0.290,-14865
1.926,-0.321,-14865
1.927,-0.344,-14865
1.928,-0.365,-14865
1.929,-0.381,-14865
1.930,-0.393,-14865
1.931,-0.403,-14865
1.932,-0.404,-14865
1.933,-0.401,-14877
1.934,-0.385,-14877
1.935,-0.370,-14877
1.936,-0.350,-14877
1.937,-0.329,-14877
1.938,-0.321,-14877
1.939,-0.299,-14877
1.940,-0.294,-14877
1.941,-0.296,-14908
1.942,-0.311,-14908
1.943,-0.333,-14908
1.944,-0.345,-14908
1.945,-0.366,-14908
1.946,-0.381,-14908
1.947,-0.403,-14908
1.948,-0.414,-14908
1.949,-0.427,-14908
1.950,-0.431,-14908
1.951,-0.430,-14908
1.952,-0.429,-14878
1.953,-0.414,-14878
1.954,-0.406,-14878
1.955,-0.394,-14878
1.956,-0.376,-14878
1.957,-0.376,-14878
1.958,-0.366,-14878
1.959,-0.362,-14878
1.960,-0.355,-14883
1.961,-0.357,-14883
1.962,-0.362,-14883
1.963,-0.371,-14883
1.964,-0.378,-14883
1.965,-0.388,-14883
1.966,-0.391,-14883
1.967,-0.405,-14883
1.968,-0.404,-14883
1.969,-0.401,-14883
1.970,-0.388,-14901
1.971,-0.376,-14901
1.972,-0.364,-14901
1.973,-0.349,-14901
1.974,-0.331,-14901
1.975,-0.321,-14901
1.976,-0.309,-14901
1.977,-0.306,-14901
1.978,-0.309,-14901
1.979,-0.312,-14901
1.980,-0.346,-14932
1.981,-0.371,-14932
1.982,-0.386,-14932
1.983,-0.394,-14932
1.984,-0.409,-14932
1.985,-0.415,-14932
1.986,-0.415,-14932
1.987,-0.414,-14932
1.988,-0.407,-14935
1.989,-0.390,-14935
1.990,-0.376,-14935
1.991,-0.362,-14935
1.992,-0.347,-14935
1.993,-0.329,-14935
1.994,-0.321,-14935
1.995,-0.307,-14935
1.996,-0.304,-14935
1.997,-0.304,-14935
1.998,-0.311,-14953
1.999,-0.326,-14953
2.000,-0.330,-14953
2.001,-0.376,-14953
2.002,-0.401,-14953
2.003,-0.409,-14953
2.004,-0.414,-14953
2.005,-0.410,-14953
2.006,-0.405,-14953
2.007,-0.389,-14974
2.008,-0.374,-14974
2.009,-0.356,-14974
2.010,-0.344,-14974
2.011,-0.324,-14974
2.012,-0.309,-14974
2.013,-0.296,-14974
2.014,-0.292,-14974
2.015,-0.289,-14974
2.016,-0.287,-14974
2.017,-0.290,-14974
2.018,-0.294,-14974
2.019,-0.304,-14974
2.020,-0.329,-14974
2.021,-0.335,-14974
2.022,-0.343,-14974
2.023,-0.346,-14974
2.024,-0.350,-14974
2.025,-0.344,-14974
2.026,-0.334,-14996
2.027,-0.326,-14996
2.028,-0.314,-14996
2.029,-0.301,-14996
2.030,-0.296,-14996
2.031,-0.284,-14996
2.032,-0.274,-14996
2.033,-0.271,-14996
2.034,-0.274,-14996
2.035,-0.285,-14996
2.036,-0.291,-15013
2.037,-0.304,-15013
2.038,-0.326,-15013
2.039,-0.335,-15013
2.040,-0.352,-15013
2.041,-0.364,-15013
2.042,-0.364,-15013
2.043,-0.365,-15013
2.044,-0.352,-15013
2.045,-0.346,-15002
2.046,-0.330,-15002
2.047,-0.314,-15002
2.048,-0.299,-15002
2.049,-0.285,-15002
2.050,-0.270,-15002
2.051,-0.260,-15002
2.052,-0.254,-15002
2.053,-0.260,-15002
2.054,-0.264,-15002
2.055,-0.275,-14995
2.056,-0.294,-14995
2.057,-0.321,-14995
2.058,-0.344,-14995
2.059,-0.364,-14995
2.060,-0.412,-14995
2.061,-0.415,-14995
2.062,-0.424,-14995
2.063,-0.424,-14995
2.064,-0.349,-14998
2.065,-0.384,-14998
2.066,-0.364,-14998
2.067,-0.336,-14998
2.068,-0.309,-14998
2.069,-0.290,-14998
2.070,-0.273,-14998
2.071,-0.265,-14998
2.072,-0.266,-14998
2.073,-0.270,-14998
2.074,-0.285,-14995
2.075,-0.306,-14995
2.076,-0.326,-14995
2.077,-0.346,-14995
2.078,-0.365,-14995
2.079,-0.374,-14995
2.080,-0.384,-14995
2.081,-0.388,-14995
2.082,-0.384,-14995
2.083,-0.370,-14977
2.084,-0.354,-14977
2.085,-0.338,-14977
2.086,-0.321,-14977
2.087,-0.296,-14977
2.088,-0.286,-14977
2.089,-0.269,-14977
2.090,-0.269,-14977
2.091,-0.270,-14977
2.092,-0.271,-14977
2.093,-0.285,-14965
2.094,-0.302,-14965
2.095,-0.311,-14965
2.096,-0.341,-14965
2.097,-0.349,-14965
2.098,-0.357,-14965
2.099,-0.366,-14965
2.100,-0.369,-14965
2.101,-0.366,-14965
2.102,-0.351,-14998
2.103,-0.344,-14998
2.104,-0.330,-14998
2.105,-0.314,-14998
2.106,-0.306,-14998
2.107,-0.291,-14998
2.108,-0.290,-14998
2.109,-0.289,-14998
2.110,-0.294,-14998
2.111,-0.301,-14998
2.112,-0.307,-14966
2.113,-0.326,-14966
2.114,-0.334,-14966
2.115,-0.344,-14966
2.116,-0.351,-14966
2.117,-0.355,-14966
2.118,-0.355,-14966
2.119,-0.351,-14966
2.120,-0.340,-14966
2.121,-0.330,-14982
2.122,-0.324,-14982
2.123,-0.310,-14982
2.124,-0.295,-14982
2.125,-0.285,-14982
2.126,-0.281,-14982
2.127,-0.271,-14982
2.128,-0.271,-14982
2.129,-0.273,-14982
2.130,-0.274,-14982
2.131,-0.284,-14983
2.132,-0.289,-14983
2.133,-0.292,-14983
2.134,-0.305,-14983
2.135,-0.320,-14983
2.136,-0.326,-14983
2.137,-0.334,-14983
2.138,-0.340,-14983
2.139,-0.334,-14983
2.140,-0.321,-15010
2.141,-0.289,-15010
2.142,-0.274,-15010
2.143,-0.264,-15010
2.144,-0.254,-15010
2.145,-0.251,-15010
2.146,-0.250,-15010
2.147,-0.251,-15010
2.148,-0.261,-15010
2.149,-0.280,-15009
2.150,-0.296,-15009
2.151,-0.314,-15009
2.152,-0.334,-15009
2.153,-0.349,-15009
2.154,-0.359,-15009
2.155,-0.371,-15009
2.156,-0.374,-15009
2.157,-0.374,-15009
2.158,-0.370,-15009
2.159,-0.364,-15007
2.160,-0.330,-15007
2.161,-0.321,-15007
2.162,-0.307,-15007
2.163,-0.289,-15007
2.164,-0.280,-15007
2.165,-0.268,-15007
2.166,-0.271,-15007
2.167,-0.274,-15007
2.168,-0.290,-15012
2.169,-0.306,-15012
2.170,-0.331,-15012
2.171,-0.349,-15012
2.172,-0.365,-15012
2.173,-0.379,-15012
2.174,-0.386,-15012
2.175,-0.393,-15012
2.176,-0.391,-15012
2.177,-0.376,-15012
2.178,-0.362,-15012
2.179,-0.344,-15025
2.180,-0.291,-15025
2.181,-0.276,-15025
2.182,-0.261,-15025
2.183,-0.250,-15025
2.184,-0.249,-15025
2.185,-0.249,-15025
2.186,-0.256,-15025
2.187,-0.269,-15025
2.188,-0.280,-15026
2.189,-0.296,-15026
2.190,-0.312,-15026
2.191,-0.330,-15026
2.192,-0.344,-15026
2.193,-0.351,-15026
2.194,-0.352,-15026
2.195,-0.351,-15026
2.196,-0.345,-15026
2.197,-0.344,-15026
2.198,-0.329,-15019
2.199,-0.311,-15019
2.200,-0.284,-15019
2.201,-0.275,-15019
2.202,-0.269,-15019
2.203,-0.264,-15019
2.204,-0.266,-15019
2.205,-0.271,-15019
2.206,-0.274,-15019
2.207,-0.289,-14999
2.208,-0.296,-14999
2.209,-0.306,-14999
2.210,-0.321,-14999
2.211,-0.329,-14999
2.212,-0.334,-14999
2.213,-0.335,-14999
2.214,-0.333,-14999
2.215,-0.328,-14999
2.216,-0.310,-14999
2.217,-0.296,-15011
2.218,-0.281,-15011
2.219,-0.264,-15011
2.220,-0.234,-15011
2.221,-0.216,-15011
2.222,-0.225,-15011
2.223,-0.229,-15011
2.224,-0.246,-15011
2.225,-0.266,-14995
2.226,-0.284,-14995
2.227,-0.301,-14995
2.228,-0.321,-14995
2.229,-0.331,-14995
2.230,-0.330,-14995
2.231,-0.329,-14995
2.232,-0.326,-14995
2.233,-0.312,-14995
2.234,-0.305,-14995
2.235,-0.286,-15024
2.236,-0.269,-15024
2.237,-0.249,-15024
2.238,-0.224,-15024
2.239,-0.209,-15024
2.240,-0.186,-15024
2.241,-0.186,-15024
2.242,-0.186,-15024
2.243,-0.194,-15024
2.244,-0.206,-14970
2.245,-0.225,-14970
2.246,-0.246,-14970
2.247,-0.256,-14970
2.248,-0.276,-14970
2.249,-0.289,-14970
2.250,-0.294,-14970
2.251,-0.294,-14970
2.252,-0.289,-14970
2.253,-0.285,-14970
2.254,-0.271,-14964
2.255,-0.256,-14964
2.256,-0.241,-14964
2.257,-0.223,-14964
2.258,-0.209,-14964
2.259,-0.195,-14964
2.260,-0.181,-14964
2.261,-0.186,-14964
2.262,-0.196,-14949
2.263,-0.224,-14949
2.264,-0.231,-14949
2.265,-0.249,-14949
2.266,-0.253,-14949
2.267,-0.255,-14949
2.268,-0.249,-14949
2.269,-0.242,-14949
2.270,-0.226,-14949
2.271,-0.211,-14950
2.272,-0.196,-14950
2.273,-0.190,-14950
2.274,-0.172,-14950
2.275,-0.166,-14950
2.276,-0.164,-14950
2.277,-0.166,-14950
2.278,-0.168,-14950
2.279,-0.181,-14950
2.280,-0.216,-14910
2.281,-0.261,-14910
2.282,-0.281,-14910
2.283,-0.290,-14910
2.284,-0.305,-14910
2.285,-0.311,-14910
2.286,-0.321,-14910
2.287,-0.310,-14910
2.288,-0.302,-14910
2.289,-0.290,-14929
2.290,-0.275,-14929
2.291,-0.268,-14929
2.292,-0.261,-14929
2.293,-0.264,-14929
2.294,-0.266,-14929
2.295,-0.270,-14929
2.296,-0.271,-14929
2.297,-0.284,-14929
2.298,-0.292,-14929
2.299,-0.304,-14908
2.300,-0.334,-14908
2.301,-0.344,-14908
2.302,-0.352,-14908
2.303,-0.365,-14908
2.304,-0.370,-14908
2.305,-0.372,-14908
2.306,-0.366,-14908
2.307,-0.360,-14908
2.308,-0.346,-14888
2.309,-0.334,-14888
2.310,-0.325,-14888
2.311,-0.310,-14888
2.312,-0.304,-14888
2.313,-0.292,-14888
2.314,-0.290,-14888
2.315,-0.291,-14888
2.316,-0.296,-14888
2.317,-0.306,-14888
2.318,-0.311,-14877
2.319,-0.329,-14877
2.320,-0.356,-14877
2.321,-0.371,-14877
2.322,-0.381,-14877
2.323,-0.384,-14877
2.324,-0.385,-14877
2.325,-0.376,-14877
2.326,-0.369,-14877
2.327,-0.351,-14862
2.328,-0.331,-14862
2.329,-0.311,-14862
2.330,-0.296,-14862
2.331,-0.284,-14862
2.332,-0.276,-14862
2.333,-0.271,-14862
2.334,-0.271,-14862
2.335,-0.271,-14862
2.336,-0.276,-14862
2.337,-0.285,-14871
2.338,-0.299,-14871
2.339,-0.311,-14871
2.340,-0.343,-14871
2.341,-0.354,-14871
2.342,-0.349,-14871
2.343,-0.346,-14871
2.344,-0.334,-14871
2.345,-0.321,-14871
2.346,-0.296,-14840
2.347,-0.286,-14840
2.348,-0.270,-14840
2.349,-0.256,-14840
2.350,-0.250,-14840
2.351,-0.246,-14840
2.352,-0.245,-14840
2.353,-0.250,-14840
2.354,-0.254,-14840
2.355,-0.264,-14840
2.356,-0.274,-14855
2.357,-0.290,-14855
2.358,-0.306,-14855
2.359,-0.326,-14855
2.360,-0.346,-14855
2.361,-0.350,-14855
2.362,-0.349,-14855
2.363,-0.344,-14855
2.364,-0.330,-14855
2.365,-0.321,-14839
2.366,-0.309,-14839
2.367,-0.294,-14839
2.368,-0.286,-14839
2.369,-0.271,-14839
2.370,-0.269,-14839
2.371,-0.268,-14839
2.372,-0.269,-14839
2.373,-0.282,-14839
2.374,-0.295,-14839
2.375,-0.309,-14845
2.376,-0.333,-14845
2.377,-0.352,-14845
2.378,-0.374,-14845
2.379,-0.403,-14845
2.380,-0.431,-14845
2.381,-0.434,-14845
2.382,-0.431,-14845
2.383,-0.420,-14845
2.384,-0.405,-14827
2.385,-0.374,-14827
2.386,-0.341,-14827
2.387,-0.294,-14827
2.388,-0.244,-14827
2.389,-0.190,-14827
2.390,-0.129,-14827
2.391,-0.065,-14827
2.392,-0.006,-14827
2.393,0.066,-14827
2.394,0.138,-14825
2.395,0.224,-14825
2.396,0.312,-14825
2.397,0.409,-14825
2.398,0.507,-14825
2.399,0.614,-14825
2.400,0.879,-14825
2.401,0.996,-14825
2.402,1.146,-14825
2.403,1.314,-14808
2.404,1.486,-14808
2.405,1.659,-14808
2.406,1.829,-14808
2.407,1.974,-14808
2.408,2.076,-14808
2.409,2.130,-14808
2.410,2.119,-14808
2.411,2.067,-14808
2.412,1.979,-14808
2.413,1.849,-14808
2.414,1.701,-14784
2.415,1.531,-14784
2.416,1.354,-14784
2.417,1.175,-14784
2.418,0.994,-14784
2.419,0.816,-14784
2.420,0.434,-14784
2.421,0.336,-14784
2.422,0.206,-14784
2.423,0.092,-14795
2.424,-0.013,-14795
2.425,-0.090,-14795
2.426,-0.164,-14795
2.427,-0.214,-14795
2.428,-0.270,-14795
2.429,-0.324,-14795
2.430,-0.365,-14795
2.431,-0.409,-14795
2.432,-0.448,-14795
2.433,-0.485,-14816
2.434,-0.525,-14816
2.435,-0.564,-14816
2.436,-0.589,-14816
2.437,-0.605,-14816
2.438,-0.610,-14816
2.439,-0.609,-14816
2.440,-0.564,-14816
2.441,-0.541,-14816
2.442,-0.505,-14775
2.443,-0.466,-14775
2.444,-0.434,-14775
2.445,-0.405,-14775
2.446,-0.378,-14775
2.447,-0.362,-14775
2.448,-0.351,-14775
2.449,-0.344,-14775
2.450,-0.341,-14775
2.451,-0.344,-14775
2.452,-0.350,-14787
2.453,-0.351,-14787
2.454,-0.364,-14787
2.455,-0.364,-14787
2.456,-0.367,-14787
2.457,-0.367,-14787
2.458,-0.364,-14787
2.459,-0.356,-14787
2.460,-0.335,-14775
2.461,-0.307,-14775
2.462,-0.296,-14775
2.463,-0.291,-14775
2.464,-0.282,-14775
2.465,-0.276,-14775
2.466,-0.281,-14775
2.467,-0.275,-14775
2.468,-0.294,-14775
2.469,-0.306,-14775
2.470,-0.324,-14747
2.471,-0.334,-14747
2.472,-0.346,-14747
2.473,-0.355,-14747
2.474,-0.356,-14747
2.475,-0.364,-14747
2.476,-0.356,-14747
2.477,-0.354,-14747
2.478,-0.345,-14747
2.479,-0.334,-14747
2.480,-0.294,-14741
2.481,-0.269,-14741
2.482,-0.256,-14741
2.483,-0.251,-14741
2.484,-0.251,-14741
2.485,-0.261,-14741
2.486,-0.269,-14741
2.487,-0.282,-14741
2.488,-0.295,-14745
2.489,-0.309,-14745
2.490,-0.324,-14745
2.491,-0.329,-14745
2.492,-0.331,-14745
2.493,-0.335,-14745
2.494,-0.331,-14745
2.495,-0.325,-14745
2.496,-0.314,-14745
2.497,-0.304,-14745
2.498,-0.289,-14700
2.499,-0.281,-14700
2.500,-0.256,-14700
2.501,-0.251,-14700
2.502,-0.250,-14700
2.503,-0.246,-14700
2.504,-0.247,-14700
2.505,-0.253,-14700
2.506,-0.261,-14700
2.507,-0.271,-14700
2.508,-0.287,-14700
2.509,-0.296,-14700
2.510,-0.314,-14700
2.511,-0.321,-14700
2.512,-0.312,-14700
2.513,-0.310,-14700
2.514,-0.301,-14700
2.515,-0.289,-14700
2.516,-0.268,-14700
2.517,-0.250,-14684
2.518,-0.224,-14684
2.519,-0.205,-14684
2.520,-0.174,-14684
2.521,-0.172,-14684
2.522,-0.177,-14684
2.523,-0.184,-14684
2.524,-0.196,-14684
2.525,-0.211,-14684
2.526,-0.230,-14649
2.527,-0.271,-14649
2.528,-0.286,-14649
2.529,-0.289,-14649
2.530,-0.294,-14649
2.531,-0.284,-14649
2.532,-0.274,-14649
2.533,-0.256,-14649
2.534,-0.244,-14649
2.535,-0.225,-14661
2.536,-0.209,-14661
2.537,-0.195,-14661
2.538,-0.181,-14661
2.539,-0.170,-14661
2.540,-0.165,-14661
2.541,-0.171,-14661
2.542,-0.186,-14661
2.543,-0.201,-14661
2.544,-0.216,-14624
2.545,-0.233,-14624
2.546,-0.251,-14624
2.547,-0.265,-14624
2.548,-0.270,-14624
2.549,-0.271,-14624
2.550,-0.271,-14624
2.551,-0.260,-14624
2.552,-0.246,-14624
2.553,-0.224,-14624
2.554,-0.194,-14607
2.555,-0.174,-14607
2.556,-0.151,-14607
2.557,-0.139,-14607
2.558,-0.125,-14607
2.559,-0.116,-14607
2.560,-0.121,-14607
2.561,-0.128,-14607
2.562,-0.138,-14607
2.563,-0.151,-14609
2.564,-0.175,-14609
2.565,-0.194,-14609
2.566,-0.201,-14609
2.567,-0.210,-14609
2.568,-0.214,-14609
2.569,-0.210,-14609
2.570,-0.201,-14609
2.571,-0.186,-14609
2.572,-0.166,-14609
2.573,-0.146,-14590
2.574,-0.126,-14590
2.575,-0.107,-14590
2.576,-0.089,-14590
2.577,-0.069,-14590
2.578,-0.066,-14590
2.579,-0.066,-14590
2.580,-0.086,-14590
2.581,-0.104,-14590
2.582,-0.116,-14574
2.583,-0.131,-14574
2.584,-0.144,-14574
2.585,-0.160,-14574
2.586,-0.170,-14574
2.587,-0.174,-14574
2.588,-0.168,-14574
2.589,-0.164,-14574
2.590,-0.147,-14574
2.591,-0.131,-14574
2.592,-0.121,-14579
2.593,-0.106,-14579
2.594,-0.089,-14579
2.595,-0.071,-14579
2.596,-0.056,-14579
2.597,-0.049,-14579
2.598,-0.044,-14579
2.599,-0.043,-14579
2.600,-0.054,-14579
2.601,-0.061,-14590
2.602,-0.074,-14590
2.603,-0.090,-14590
2.604,-0.101,-14590
2.605,-0.111,-14590
2.606,-0.114,-14590
2.607,-0.110,-14590
2.608,-0.104,-14590
2.609,-0.090,-14590
2.610,-0.069,-14590
2.611,-0.049,-14624
2.612,-0.031,-14624
2.613,-0.020,-14624
2.614,-0.003,-14624
2.615,0.019,-14624
2.616,0.022,-14624
2.617,0.026,-14624
2.618,0.021,-14624
2.619,0.014,-14624
2.620,-0.014,-14672
2.621,-0.036,-14672
2.622,-0.048,-14672
2.623,-0.056,-14672
2.624,-0.056,-14672
2.625,-0.061,-14672
2.626,-0.054,-14672
2.627,-0.049,-14672
2.628,-0.031,-14672
2.629,-0.014,-14707
2.630,0.011,-14707
2.631,0.031,-14707
2.632,0.044,-14707
2.633,0.056,-14707
2.634,0.064,-14707
2.635,0.064,-14707
2.636,0.055,-14707
2.637,0.049,-14707
2.638,0.039,-14707
2.639,0.029,-14757
2.640,-0.007,-14757
2.641,-0.016,-14757
2.642,-0.026,-14757
2.643,-0.035,-14757
2.644,-0.036,-14757
2.645,-0.036,-14757
2.646,-0.034,-14757
2.647,-0.021,-14757
2.648,-0.013,-14757
2.649,0.009,-14787
2.650,0.022,-14787
2.651,0.035,-14787
2.652,0.051,-14787
2.653,0.064,-14787
2.654,0.066,-14787
2.655,0.066,-14787
2.656,0.059,-14787
2.657,0.052,-14787
2.658,0.035,-14787
2.659,0.021,-14835
2.660,-0.026,-14835
2.661,-0.044,-14835
2.662,-0.054,-14835
2.663,-0.055,-14835
2.664,-0.054,-14835
2.665,-0.046,-14835
2.666,-0.041,-14835
2.667,-0.034,-14865
2.668,-0.026,-14865
2.669,-0.021,-14865
2.670,-0.024,-14865
2.671,-0.029,-14865
2.672,-0.041,-14865
2.673,-0.050,-14865
2.674,-0.069,-14865
2.675,-0.089,-14865
2.676,-0.114,-14914
2.677,-0.161,-14914
2.678,-0.174,-14914
2.679,-0.189,-14914
2.680,-0.194,-14914
2.681,-0.196,-14914
2.682,-0.196,-14914
2.683,-0.194,-14914
2.684,-0.191,-14914
2.685,-0.189,-14893
2.686,-0.181,-14893
2.687,-0.185,-14893
2.688,-0.185,-14893
2.689,-0.194,-14893
2.690,-0.206,-14893
2.691,-0.226,-14893
2.692,-0.246,-14893
2.693,-0.263,-14893
2.694,-0.280,-14893
2.695,-0.296,-14926
2.696,-0.321,-14926
2.697,-0.333,-14926
2.698,-0.344,-14926
2.699,-0.350,-14926
2.700,-0.344,-14926
2.701,-0.334,-14926
2.702,-0.324,-14926
2.703,-0.302,-14926
2.704,-0.286,-14950
2.705,-0.269,-14950
2.706,-0.256,-14950
2.707,-0.250,-14950
2.708,-0.251,-14950
2.709,-0.253,-14950
2.710,-0.266,-14950
2.711,-0.276,-14950
2.712,-0.292,-14950
2.713,-0.355,-14950
2.714,-0.331,-14952
2.715,-0.349,-14952
2.716,-0.365,-14952
2.717,-0.371,-14952
2.718,-0.381,-14952
2.719,-0.378,-14952
2.720,-0.366,-14952
2.721,-0.351,-14952
2.722,-0.336,-14952
2.723,-0.312,-14964
2.724,-0.291,-14964
2.725,-0.276,-14964
2.726,-0.266,-14964
2.727,-0.263,-14964
2.728,-0.266,-14964
2.729,-0.271,-14964
2.730,-0.284,-14964
2.731,-0.296,-14964
2.732,-0.323,-14964
2.733,-0.341,-14973
2.734,-0.359,-14973
2.735,-0.372,-14973
2.736,-0.381,-14973
2.737,-0.383,-14973
2.738,-0.375,-14973
2.739,-0.369,-14973
2.740,-0.330,-14973
2.741,-0.323,-14973
2.742,-0.297,-14984
2.743,-0.269,-14984
2.744,-0.256,-14984
2.745,-0.256,-14984
2.746,-0.263,-14984
2.747,-0.274,-14984
2.748,-0.286,-14984
2.749,-0.301,-14984
2.750,-0.314,-15013
2.751,-0.340,-15013
2.752,-0.344,-15013
2.753,-0.351,-15013
2.754,-0.355,-15013
2.755,-0.361,-15013
2.756,-0.359,-15013
2.757,-0.344,-15013
2.758,-0.329,-15013
2.759,-0.311,-15013
2.760,-0.280,-14998
2.761,-0.261,-14998
2.762,-0.256,-14998
2.763,-0.255,-14998
2.764,-0.264,-14998
2.765,-0.269,-14998
2.766,-0.285,-14998
2.767,-0.296,-14998
2.768,-0.320,-15004
2.769,-0.333,-15004
2.770,-0.338,-15004
2.771,-0.347,-15004
2.772,-0.346,-15004
2.773,-0.344,-15004
2.774,-0.334,-15004
2.775,-0.314,-15004
2.776,-0.296,-15004
2.777,-0.289,-15004
2.778,-0.269,-15041
2.779,-0.261,-15041
2.780,-0.245,-15041
2.781,-0.234,-15041
2.782,-0.244,-15041
2.783,-0.246,-15041
2.784,-0.255,-15041
2.785,-0.269,-15041
2.786,-0.286,-15041
2.787,-0.304,-15013
2.788,-0.321,-15013
2.789,-0.331,-15013
2.790,-0.334,-15013
2.791,-0.333,-15013
2.792,-0.334,-15013
2.793,-0.326,-15013
2.794,-0.312,-15013
2.795,-0.296,-15013
2.796,-0.284,-15013
2.797,-0.269,-15027
2.798,-0.261,-15027
2.799,-0.249,-15027
2.800,-0.229,-15027
2.801,-0.229,-15027
2.802,-0.234,-15027
2.803,-0.246,-15027
2.804,-0.264,-15027
2.805,-0.281,-15027
2.806,-0.296,-15056
2.807,-0.324,-15056
2.808,-0.341,-15056
2.809,-0.350,-15056
2.810,-0.362,-15056
2.811,-0.362,-15056
2.812,-0.354,-15056
2.813,-0.344,-15056
2.814,-0.329,-15056
2.815,-0.310,-15056
2.816,-0.292,-15066
2.817,-0.281,-15066
2.818,-0.270,-15066
2.819,-0.263,-15066
2.820,-0.254,-15066
2.821,-0.255,-15066
2.822,-0.256,-15066
2.823,-0.264,-15066
2.824,-0.269,-15066
2.825,-0.284,-15060
2.826,-0.291,-15060
2.827,-0.304,-15060
2.828,-0.314,-15060
2.829,-0.321,-15060
2.830,-0.321,-15060
2.831,-0.311,-15060
2.832,-0.306,-15060
2.833,-0.291,-15060
2.834,-0.280,-15060
2.835,-0.261,-15092
2.836,-0.244,-15092
2.837,-0.226,-15092
2.838,-0.214,-15092
2.839,-0.206,-15092
2.840,-0.214,-15092
2.841,-0.226,-15092
2.842,-0.249,-15092
2.843,-0.265,-15092
2.844,-0.284,-15047
2.845,-0.305,-15047
2.846,-0.329,-15047
2.847,-0.341,-15047
2.848,-0.345,-15047
2.849,-0.341,-15047
2.850,-0.334,-15047
2.851,-0.325,-15047
2.852,-0.309,-15047
2.853,-0.289,-15047
2.854,-0.269,-15036
2.855,-0.254,-15036
2.856,-0.244,-15036
2.857,-0.229,-15036
2.858,-0.226,-15036
2.859,-0.229,-15036
2.860,-0.254,-15036
2.861,-0.268,-15036
2.862,-0.274,-15036
2.863,-0.291,-15052
2.864,-0.309,-15052
2.865,-0.326,-15052
2.866,-0.331,-15052
2.867,-0.341,-15052
2.868,-0.341,-15052
2.869,-0.334,-15052
2.870,-0.328,-15052
2.871,-0.310,-15052
2.872,-0.290,-15052
2.873,-0.275,-15056
2.874,-0.266,-15056
2.875,-0.255,-15056
2.876,-0.249,-15056
2.877,-0.246,-15056
2.878,-0.244,-15056
2.879,-0.254,-15056
2.880,-0.282,-15056
2.881,-0.296,-15056
2.882,-0.323,-15056
2.883,-0.334,-15055
2.884,-0.349,-15055
2.885,-0.356,-15055
2.886,-0.356,-15055
2.887,-0.356,-15055
2.888,-0.351,-15055
2.889,-0.345,-15055
2.890,-0.330,-15055
2.891,-0.307,-15055
2.892,-0.289,-15055
2.893,-0.270,-15065
2.894,-0.254,-15065
2.895,-0.241,-15065
2.896,-0.231,-15065
2.897,-0.225,-15065
2.898,-0.229,-15065
2.899,-0.244,-15065
2.900,-0.269,-15065
2.901,-0.285,-15088
2.902,-0.321,-15088
2.903,-0.331,-15088
2.904,-0.344,-15088
2.905,-0.346,-15088
2.906,-0.346,-15088
2.907,-0.336,-15088
2.908,-0.326,-15088
2.909,-0.310,-15088
2.910,-0.297,-15088
2.911,-0.291,-15075
2.912,-0.285,-15075
2.913,-0.276,-15075
2.914,-0.281,-15075
2.915,-0.286,-15075
2.916,-0.292,-15075
2.917,-0.306,-15075
2.918,-0.321,-15075
2.919,-0.331,-15075
2.920,-0.354,-15080
2.921,-0.366,-15080
2.922,-0.366,-15080
2.923,-0.364,-15080
2.924,-0.351,-15080
2.925,-0.341,-15080
2.926,-0.324,-15080
2.927,-0.301,-15080
2.928,-0.282,-15080
2.929,-0.269,-15071
2.930,-0.255,-15071
2.931,-0.249,-15071
2.932,-0.251,-15071
2.933,-0.251,-15071
2.934,-0.261,-15071
2.935,-0.274,-15071
2.936,-0.290,-15071
2.937,-0.304,-15071
2.938,-0.324,-15071
2.939,-0.335,-15085
2.940,-0.349,-15085
2.941,-0.352,-15085
2.942,-0.349,-15085
2.943,-0.344,-15085
2.944,-0.331,-15085
2.945,-0.312,-15085
2.946,-0.305,-15085
2.947,-0.286,-15085
2.948,-0.271,-15074
2.949,-0.265,-15074
2.950,-0.254,-15074
2.951,-0.261,-15074
2.952,-0.261,-15074
2.953,-0.273,-15074
2.954,-0.289,-15074
2.955,-0.306,-15074
2.956,-0.326,-15074
2.957,-0.346,-15074
2.958,-0.356,-15042
2.959,-0.366,-15042
2.960,-0.371,-15042
2.961,-0.365,-15042
2.962,-0.357,-15042
2.963,-0.346,-15042
2.964,-0.334,-15042
2.965,-0.310,-15042
2.966,-0.291,-15042
2.967,-0.274,-15053
2.968,-0.261,-15053
2.969,-0.249,-15053
2.970,-0.244,-15053
2.971,-0.244,-15053
2.972,-0.251,-15053
2.973,-0.256,-15053
2.974,-0.271,-15053
2.975,-0.281,-15053
2.976,-0.296,-15053
2.977,-0.309,-15032
2.978,-0.325,-15032
2.979,-0.331,-15032
2.980,-0.336,-15032
2.981,-0.328,-15032
2.982,-0.325,-15032
2.983,-0.311,-15032
2.984,-0.301,-15032
2.985,-0.289,-15032
2.986,-0.276,-15033
2.987,-0.266,-15033
2.988,-0.255,-15033
2.989,-0.251,-15033
2.990,-0.251,-15033
2.991,-0.261,-15033
2.992,-0.269,-15033
2.993,-0.289,-15033
2.994,-0.304,-15033
2.995,-0.321,-15033
2.996,-0.330,-15012
2.997,-0.338,-15012
2.998,-0.341,-15012
2.999,-0.338,-15012
3.000,-0.321,-15012
3.001,-0.304,-15012
3.002,-0.289,-15012
3.003,-0.274,-15012
3.004,-0.261,-15012
3.005,-0.251,-14984
3.006,-0.241,-14984
3.007,-0.231,-14984
3.008,-0.231,-14984
3.009,-0.234,-14984
3.010,-0.245,-14984
3.011,-0.256,-14984
3.012,-0.265,-14984
3.013,-0.271,-14984
3.014,-0.284,-14984
3.015,-0.289,-14996
3.016,-0.295,-14996
3.017,-0.296,-14996
3.018,-0.306,-14996
3.019,-0.304,-14996
3.020,-0.291,-14996
3.021,-0.285,-14996
3.022,-0.286,-14996
3.023,-0.251,-14996
3.024,-0.234,-14990
3.025,-0.224,-14990
3.026,-0.216,-14990
3.027,-0.219,-14990
3.028,-0.223,-14990
3.029,-0.231,-14990
3.030,-0.249,-14990
3.031,-0.265,-14990
3.032,-0.281,-14990
3.033,-0.294,-14990
3.034,-0.305,-14976
3.035,-0.311,-14976
3.036,-0.325,-14976
3.037,-0.321,-14976
3.038,-0.309,-14976
3.039,-0.295,-14976
3.040,-0.264,-14976
3.041,-0.249,-14976
3.042,-0.231,-14976
3.043,-0.219,-14971
3.044,-0.209,-14971
3.045,-0.196,-14971
3.046,-0.188,-14971
3.047,-0.191,-14971
3.048,-0.193,-14971
3.049,-0.206,-14971
3.050,-0.216,-14971
3.051,-0.234,-14971
3.052,-0.245,-14971
3.053,-0.255,-14948
3.054,-0.269,-14948
3.055,-0.271,-14948
3.056,-0.271,-14948
3.057,-0.269,-14948
3.058,-0.264,-14948
3.059,-0.246,-14948
3.060,-0.211,-14948
3.061,-0.203,-14948
3.062,-0.186,-14950
3.063,-0.175,-14950
3.064,-0.166,-14950
3.065,-0.165,-14950
3.066,-0.168,-14950
3.067,-0.171,-14950
3.068,-0.186,-14950
3.069,-0.203,-14950
3.070,-0.214,-14950
3.071,-0.226,-14950
3.072,-0.247,-14983
3.073,-0.261,-14983
3.074,-0.263,-14983
3.075,-0.261,-14983
3.076,-0.250,-14983
3.077,-0.223,-14983
3.078,-0.205,-14983
3.079,-0.177,-14983
3.080,-0.133,-14983
3.081,-0.114,-14958
3.082,-0.101,-14958
3.083,-0.089,-14958
3.084,-0.084,-14958
3.085,-0.086,-14958
3.086,-0.091,-14958
3.087,-0.109,-14958
3.088,-0.128,-14958
3.089,-0.150,-14958
3.090,-0.175,-14958
3.091,-0.207,-14936
3.092,-0.229,-14936
3.093,-0.250,-14936
3.094,-0.264,-14936
3.095,-0.270,-14936
3.096,-0.269,-14936
3.097,-0.265,-14936
3.098,-0.256,-14936
3.099,-0.245,-14936
3.100,-0.216,-14918
3.101,-0.209,-14918
3.102,-0.214,-14918
3.103,-0.226,-14918
3.104,-0.246,-14918
3.105,-0.261,-14918
3.106,-0.280,-14918
3.107,-0.304,-14918
3.108,-0.325,-14918
3.109,-0.346,-14936
3.110,-0.364,-14936
3.111,-0.372,-14936
3.112,-0.376,-14936
3.113,-0.371,-14936
3.114,-0.366,-14936
3.115,-0.350,-14936
3.116,-0.333,-14936
3.117,-0.312,-14936
3.118,-0.299,-14936
3.119,-0.289,-14936
3.120,-0.280,-14940
3.121,-0.286,-14940
3.122,-0.292,-14940
3.123,-0.305,-14940
3.124,-0.311,-14940
3.125,-0.324,-14940
3.126,-0.331,-14940
3.127,-0.344,-14940
3.128,-0.354,-14930
3.129,-0.361,-14930
3.130,-0.362,-14930
3.131,-0.364,-14930
3.132,-0.351,-14930
3.133,-0.344,-14930
3.134,-0.330,-14930
3.135,-0.311,-14930
3.136,-0.291,-14930
3.137,-0.284,-14930
3.138,-0.269,-14928
3.139,-0.261,-14928
3.140,-0.264,-14928
3.141,-0.273,-14928
3.142,-0.284,-14928
3.143,-0.292,-14928
3.144,-0.311,-14928
3.145,-0.331,-14928
3.146,-0.361,-14928
3.147,-0.354,-14907
3.148,-0.365,-14907
3.149,-0.366,-14907
3.150,-0.365,-14907
3.151,-0.354,-14907
3.152,-0.344,-14907
3.153,-0.329,-14907
3.154,-0.310,-14907
3.155,-0.294,-14907
3.156,-0.284,-14907
3.157,-0.269,-14915
3.158,-0.261,-14915
3.159,-0.250,-14915
3.160,-0.250,-14915
3.161,-0.261,-14915
3.162,-0.270,-14915
3.163,-0.286,-14915
3.164,-0.304,-14915
3.165,-0.325,-14915
3.166,-0.345,-14943
3.167,-0.354,-14943
3.168,-0.356,-14943
3.169,-0.364,-14943
3.170,-0.359,-14943
3.171,-0.349,-14943
3.172,-0.341,-14943
3.173,-0.324,-14943
3.174,-0.304,-14943
3.175,-0.289,-14943
3.176,-0.271,-14889
3.177,-0.256,-14889
3.178,-0.249,-14889
3.179,-0.242,-14889
3.180,-0.251,-14889
3.181,-0.266,-14889
3.182,-0.276,-14889
3.183,-0.295,-14889
3.184,-0.311,-14889
3.185,-0.334,-14912
3.186,-0.349,-14912
3.187,-0.365,-14912
3.188,-0.374,-14912
3.189,-0.381,-14912
3.190,-0.384,-14912
3.191,-0.383,-14912
3.192,-0.379,-14912
3.193,-0.371,-14912
3.194,-0.366,-14912
3.195,-0.365,-14888
3.196,-0.356,-14888
3.197,-0.350,-14888
3.198,-0.346,-14888
3.199,-0.335,-14888
3.200,-0.321,-14888
3.201,-0.305,-14888
3.202,-0.286,-14888
3.203,-0.261,-14888
3.204,-0.216,-14878
3.205,-0.168,-14878
3.206,-0.106,-14878
3.207,-0.028,-14878
3.208,0.066,-14878
3.209,0.179,-14878
3.210,0.295,-14878
3.211,0.422,-14878
3.212,0.539,-14878
3.213,0.665,-14878
3.214,0.786,-14873
3.215,0.916,-14873
3.216,1.049,-14873
3.217,1.179,-14873
3.218,1.319,-14873
3.219,1.468,-14873
3.220,1.752,-14873
3.221,1.829,-14873
3.222,1.899,-14873
3.223,1.931,-14851
3.224,1.877,-14851
3.225,1.800,-14851
3.226,1.735,-14851
3.227,1.651,-14851
3.228,1.546,-14851
3.229,1.424,-14851
3.230,1.291,-14851
3.231,1.139,-14851
3.232,0.985,-14862
3.233,0.816,-14862
3.234,0.654,-14862
3.235,0.479,-14862
3.236,0.319,-14862
3.237,0.171,-14862
3.238,0.036,-14862
3.239,-0.094,-14862
3.240,-0.291,-14862
3.241,-0.361,-14825
3.242,-0.425,-14825
3.243,-0.469,-14825
3.244,-0.510,-14825
3.245,-0.535,-14825
3.246,-0.552,-14825
3.247,-0.566,-14825
3.248,-0.570,-14825
3.249,-0.569,-14825
3.250,-0.569,-14825
3.251,-0.562,-14823
3.252,-0.547,-14823
3.253,-0.536,-14823
3.254,-0.529,-14823
3.255,-0.529,-14823
3.256,-0.526,-14823
3.257,-0.529,-14823
3.258,-0.530,-14823
3.259,-0.529,-14823
3.260,-0.526,-14808
3.261,-0.506,-14808
3.262,-0.496,-14808
3.263,-0.481,-14808
3.264,-0.454,-14808
3.265,-0.432,-14808
3.266,-0.411,-14808
3.267,-0.389,-14808
3.268,-0.371,-14808
3.269,-0.354,-14812
3.270,-0.346,-14812
3.271,-0.345,-14812
3.272,-0.341,-14812
3.273,-0.346,-14812
3.274,-0.362,-14812
3.275,-0.374,-14812
3.276,-0.401,-14812
3.277,-0.421,-14812
3.278,-0.431,-14812
3.279,-0.449,-14779
3.280,-0.461,-14779
3.281,-0.461,-14779
3.282,-0.454,-14779
3.283,-0.444,-14779
3.284,-0.429,-14779
3.285,-0.415,-14779
3.286,-0.391,-14779
3.287,-0.378,-14779
3.288,-0.365,-14783
3.289,-0.351,-14783
3.290,-0.346,-14783
3.291,-0.346,-14783
3.292,-0.349,-14783
3.293,-0.356,-14783
3.294,-0.370,-14783
3.295,-0.379,-14783
3.296,-0.386,-14783
3.297,-0.401,-14783
3.298,-0.410,-14766
3.299,-0.412,-14766
3.300,-0.414,-14766
3.301,-0.375,-14766
3.302,-0.401,-14766
3.303,-0.383,-14766
3.304,-0.365,-14766
3.305,-0.349,-14766
3.306,-0.331,-14766
3.307,-0.321,-14755
3.308,-0.311,-14755
3.309,-0.321,-14755
3.310,-0.324,-14755
3.311,-0.334,-14755
3.312,-0.341,-14755
3.313,-0.354,-14755
3.314,-0.370,-14755
3.315,-0.384,-14755
3.316,-0.405,-14755
3.317,-0.414,-14748
3.318,-0.421,-14748
3.319,-0.426,-14748
3.320,-0.411,-14748
3.321,-0.406,-14748
3.322,-0.386,-14748
3.323,-0.364,-14748
3.324,-0.345,-14748
3.325,-0.329,-14748
3.326,-0.311,-14746
3.327,-0.306,-14746
3.328,-0.297,-14746
3.329,-0.301,-14746
3.330,-0.309,-14746
3.331,-0.329,-14746
3.332,-0.343,-14746
3.333,-0.424,-14746
3.334,-0.346,-14746
3.335,-0.389,-14746
3.336,-0.405,-14726
3.337,-0.409,-14726
3.338,-0.410,-14726
3.339,-0.410,-14726
3.340,-0.372,-14726
3.341,-0.361,-14726
3.342,-0.347,-14726
3.343,-0.329,-14726
3.344,-0.309,-14726
3.345,-0.296,-14730
3.346,-0.285,-14730
3.347,-0.282,-14730
3.348,-0.284,-14730
3.349,-0.286,-14730
3.350,-0.294,-14730
3.351,-0.306,-14730
3.352,-0.324,-14730
3.353,-0.334,-14730
3.354,-0.347,-14730
3.355,-0.361,-14730
3.356,-0.371,-14713
3.357,-0.384,-14713
3.358,-0.383,-14713
3.359,-0.376,-14713
3.360,-0.346,-14713
3.361,-0.333,-14713
3.362,-0.306,-14713
3.363,-0.290,-14713
3.364,-0.226,-14713
3.365,-0.264,-14697
3.366,-0.261,-14697
3.367,-0.263,-14697
3.368,-0.266,-14697
3.369,-0.281,-14697
3.370,-0.291,-14697
3.371,-0.306,-14697
3.372,-0.324,-14697
3.373,-0.330,-14697
3.374,-0.341,-14697
3.375,-0.341,-14683
3.376,-0.341,-14683
3.377,-0.334,-14683
3.378,-0.324,-14683
3.379,-0.304,-14683
3.380,-0.270,-14683
3.381,-0.263,-14683
3.382,-0.246,-14683
3.383,-0.242,-14673
3.384,-0.236,-14673
3.385,-0.233,-14673
3.386,-0.234,-14673
3.387,-0.244,-14673
3.388,-0.246,-14673
3.389,-0.255,-14673
3.390,-0.266,-14673
3.391,-0.281,-14673
3.392,-0.290,-14673
3.393,-0.292,-14673
3.394,-0.294,-14658
3.395,-0.296,-14658
3.396,-0.290,-14658
3.397,-0.286,-14658
3.398,-0.276,-14658
3.399,-0.265,-14658
3.400,-0.229,-14658
3.401,-0.216,-14658
3.402,-0.211,-14658
3.403,-0.206,-14682
3.404,-0.204,-14682
3.405,-0.206,-14682
3.406,-0.216,-14682
3.407,-0.221,-14682
3.408,-0.241,-14682
3.409,-0.246,-14682
3.410,-0.256,-14682
3.411,-0.264,-14682
3.412,-0.271,-14682
3.413,-0.271,-14678
3.414,-0.271,-14678
3.415,-0.264,-14678
3.416,-0.249,-14678
3.417,-0.229,-14678
3.418,-0.206,-14678
3.419,-0.184,-14678
3.420,-0.129,-14678
3.421,-0.116,-14678
3.422,-0.106,-14719
3.423,-0.101,-14719
3.424,-0.096,-14719
3.425,-0.104,-14719
3.426,-0.111,-14719
3.427,-0.121,-14719
3.428,-0.134,-14719
3.429,-0.146,-14719
3.430,-0.164,-14719
3.431,-0.174,-14719
3.432,-0.186,-14745
3.433,-0.189,-14745
3.434,-0.191,-14745
3.435,-0.186,-14745
3.436,-0.172,-14745
3.437,-0.161,-14745
3.438,-0.139,-14745
3.439,-0.124,-14745
3.440,-0.089,-14745
3.441,-0.085,-14786
3.442,-0.083,-14786
3.443,-0.084,-14786
3.444,-0.086,-14786
3.445,-0.096,-14786
3.446,-0.109,-14786
3.447,-0.125,-14786
3.448,-0.141,-14786
3.449,-0.164,-14786
3.450,-0.174,-14786
3.451,-0.186,-14811
3.452,-0.186,-14811
3.453,-0.182,-14811
3.454,-0.172,-14811
3.455,-0.160,-14811
3.456,-0.139,-14811
3.457,-0.114,-14811
3.458,-0.095,-14811
3.459,-0.071,-14811
3.460,-0.049,-14838
3.461,-0.050,-14838
3.462,-0.059,-14838
3.463,-0.071,-14838
3.464,-0.095,-14838
3.465,-0.114,-14838
3.466,-0.129,-14838
3.467,-0.142,-14838
3.468,-0.161,-14838
3.469,-0.164,-14897
3.470,-0.166,-14897
3.471,-0.165,-14897
3.472,-0.151,-14897
3.473,-0.136,-14897
3.474,-0.122,-14897
3.475,-0.104,-14897
3.476,-0.074,-14897
3.477,-0.058,-14897
3.478,-0.046,-14897
3.479,-0.039,-14902
3.480,-0.044,-14902
3.481,-0.049,-14902
3.482,-0.066,-14902
3.483,-0.090,-14902
3.484,-0.114,-14902
3.485,-0.144,-14902
3.486,-0.170,-14902
3.487,-0.193,-14902
3.488,-0.211,-14928
3.489,-0.219,-14928
3.490,-0.223,-14928
3.491,-0.221,-14928
3.492,-0.210,-14928
3.493,-0.205,-14928
3.494,-0.193,-14928
3.495,-0.184,-14928
3.496,-0.174,-14928
3.497,-0.169,-14928
3.498,-0.166,-14954
3.499,-0.171,-14954
3.500,-0.196,-14954
3.501,-0.217,-14954
3.502,-0.245,-14954
3.503,-0.271,-14954
3.504,-0.296,-14954
3.505,-0.330,-14954
3.506,-0.354,-14954
3.507,-0.371,-14965
3.508,-0.384,-14965
3.509,-0.390,-14965
3.510,-0.385,-14965
3.511,-0.376,-14965
3.512,-0.369,-14965
3.513,-0.344,-14965
3.514,-0.324,-14965
3.515,-0.304,-14965
3.516,-0.287,-14965
3.517,-0.280,-14988
3.518,-0.281,-14988
3.519,-0.284,-14988
3.520,-0.311,-14988
3.521,-0.336,-14988
3.522,-0.361,-14988
3.523,-0.381,-14988
3.524,-0.404,-14988
3.525,-0.425,-14988
3.526,-0.436,-14992
3.527,-0.444,-14992
3.528,-0.441,-14992
3.529,-0.432,-14992
3.530,-0.426,-14992
3.531,-0.411,-14992
3.532,-0.389,-14992
3.533,-0.370,-14992
3.534,-0.354,-14992
3.535,-0.344,-14992
3.536,-0.341,-15005
3.537,-0.344,-15005
3.538,-0.349,-15005
3.539,-0.356,-15005
3.540,-0.390,-15005
3.541,-0.411,-15005
3.542,-0.432,-15005
3.543,-0.441,-15005
3.544,-0.454,-15005
3.545,-0.458,-15007
3.546,-0.464,-15007
3.547,-0.459,-15007
3.548,-0.451,-15007
3.549,-0.436,-15007
3.550,-0.429,-15007
3.551,-0.414,-15007
3.552,-0.401,-15007
3.553,-0.380,-15007
3.554,-0.364,-15007
3.555,-0.356,-15016
3.556,-0.349,-15016
3.557,-0.349,-15016
3.558,-0.356,-15016
3.559,-0.364,-15016
3.560,-0.394,-15016
3.561,-0.427,-15016
3.562,-0.441,-15016
3.563,-0.450,-15036
3.564,-0.458,-15036
3.565,-0.458,-15036
3.566,-0.454,-15036
3.567,-0.445,-15036
3.568,-0.434,-15036
3.569,-0.421,-15036
3.570,-0.403,-15036
3.571,-0.381,-15036
3.572,-0.361,-15036
3.573,-0.346,-15052
3.574,-0.341,-15052
3.575,-0.341,-15052
3.576,-0.346,-15052
3.577,-0.361,-15052
3.578,-0.375,-15052
3.579,-0.391,-15052
3.580,-0.429,-15052
3.581,-0.440,-15052
3.582,-0.383,-15062
3.583,-0.431,-15062
3.584,-0.426,-15062
3.585,-0.412,-15062
3.586,-0.371,-15062
3.587,-0.354,-15062
3.588,-0.336,-15062
3.589,-0.326,-15062
3.590,-0.304,-15062
3.591,-0.291,-15068
3.592,-0.294,-15068
3.593,-0.294,-15068
3.594,-0.306,-15068
3.595,-0.324,-15068
3.596,-0.340,-15068
3.597,-0.354,-15068
3.598,-0.369,-15068
3.599,-0.378,-15068
3.600,-0.404,-15085
3.601,-0.401,-15085
3.602,-0.400,-15085
3.603,-0.384,-15085
3.604,-0.371,-15085
3.605,-0.362,-15085
3.606,-0.346,-15085
3.607,-0.334,-15085
3.608,-0.324,-15085
3.609,-0.307,-15085
3.610,-0.297,-15105
3.611,-0.296,-15105
3.612,-0.301,-15105
3.613,-0.305,-15105
3.614,-0.311,-15105
3.615,-0.326,-15105
3.616,-0.346,-15105
3.617,-0.354,-15105
3.618,-0.367,-15105
3.619,-0.375,-15105
3.620,-0.384,-15129
3.621,-0.354,-15129
3.622,-0.341,-15129
3.623,-0.324,-15129
3.624,-0.301,-15129
3.625,-0.286,-15129
3.626,-0.269,-15129
3.627,-0.261,-15129
3.628,-0.249,-15126
3.629,-0.249,-15126
3.630,-0.251,-15126
3.631,-0.261,-15126
3.632,-0.271,-15126
3.633,-0.285,-15126
3.634,-0.296,-15126
3.635,-0.309,-15126
3.636,-0.325,-15126
3.637,-0.333,-15126
3.638,-0.338,-15116
3.639,-0.341,-15116
3.640,-0.328,-15116
3.641,-0.323,-15116
3.642,-0.301,-15116
3.643,-0.294,-15116
3.644,-0.281,-15116
3.645,-0.268,-15116
3.646,-0.264,-15116
3.647,-0.261,-15122
3.648,-0.261,-15122
3.649,-0.270,-15122
3.650,-0.282,-15122
3.651,-0.294,-15122
3.652,-0.309,-15122
3.653,-0.326,-15122
3.654,-0.336,-15122
3.655,-0.347,-15122
3.656,-0.349,-15122
3.657,-0.349,-15132
3.658,-0.344,-15132
3.659,-0.330,-15132
3.660,-0.296,-15132
3.661,-0.286,-15132
3.662,-0.273,-15132
3.663,-0.263,-15132
3.664,-0.254,-15132
3.665,-0.250,-15132
3.666,-0.250,-15152
3.667,-0.254,-15152
3.668,-0.264,-15152
3.669,-0.273,-15152
3.670,-0.291,-15152
3.671,-0.310,-15152
3.672,-0.324,-15152
3.673,-0.341,-15152
3.674,-0.349,-15152
3.675,-0.351,-15152
3.676,-0.350,-15130
3.677,-0.346,-15130
3.678,-0.341,-15130
3.679,-0.331,-15130
3.680,-0.321,-15130
3.681,-0.309,-15130
3.682,-0.304,-15130
3.683,-0.290,-15130
3.684,-0.284,-15130
3.685,-0.276,-15119
3.686,-0.274,-15119
3.687,-0.281,-15119
3.688,-0.286,-15119
3.689,-0.292,-15119
3.690,-0.304,-15119
3.691,-0.309,-15119
3.692,-0.321,-15119
3.693,-0.326,-15119
3.694,-0.329,-15119
3.695,-0.331,-15125
3.696,-0.328,-15125
3.697,-0.323,-15125
3.698,-0.305,-15125
3.699,-0.291,-15125
3.700,-0.256,-15125
3.701,-0.245,-15125
3.702,-0.231,-15125
3.703,-0.226,-15125
3.704,-0.228,-15099
3.705,-0.255,-15099
3.706,-0.274,-15099
3.707,-0.289,-15099
3.708,-0.309,-15099
3.709,-0.331,-15099
3.710,-0.349,-15099
3.711,-0.369,-15099
3.712,-0.376,-15099
3.713,-0.384,-15137
3.714,-0.384,-15137
3.715,-0.371,-15137
3.716,-0.351,-15137
3.717,-0.330,-15137
3.718,-0.305,-15137
3.719,-0.281,-15137
3.720,-0.229,-15137
3.721,-0.217,-15137
3.722,-0.214,-15115
3.723,-0.215,-15115
3.724,-0.225,-15115
3.725,-0.241,-15115
3.726,-0.254,-15115
3.727,-0.276,-15115
3.728,-0.301,-15115
3.729,-0.324,-15115
3.730,-0.340,-15115
3.731,-0.346,-15115
3.732,-0.351,-15140
3.733,-0.349,-15140
3.734,-0.340,-15140
3.735,-0.334,-15140
3.736,-0.311,-15140
3.737,-0.299,-15140
3.738,-0.284,-15140
3.739,-0.269,-15140
3.740,-0.244,-15140
3.741,-0.233,-15113
3.742,-0.244,-15113
3.743,-0.250,-15113
3.744,-0.264,-15113
3.745,-0.281,-15113
3.746,-0.301,-15113
3.747,-0.321,-15113
3.748,-0.334,-15113
3.749,-0.345,-15113
3.750,-0.349,-15174
3.751,-0.346,-15174
3.752,-0.336,-15174
3.753,-0.326,-15174
3.754,-0.309,-15174
3.755,-0.291,-15174
3.756,-0.274,-15174
3.757,-0.261,-15174
3.758,-0.246,-15174
3.759,-0.234,-15174
3.760,-0.241,-15113
3.761,-0.260,-15113
3.762,-0.271,-15113
3.763,-0.287,-15113
3.764,-0.302,-15113
3.765,-0.347,-15113
3.766,-0.333,-15113
3.767,-0.344,-15113
3.768,-0.346,-15109
3.769,-0.344,-15109
3.770,-0.340,-15109
3.771,-0.331,-15109
3.772,-0.321,-15109
3.773,-0.304,-15109
3.774,-0.286,-15109
3.775,-0.271,-15109
3.776,-0.261,-15109
3.777,-0.246,-15109
3.778,-0.242,-15081
3.779,-0.246,-15081
3.780,-0.268,-15081
3.781,-0.281,-15081
3.782,-0.296,-15081
3.783,-0.321,-15081
3.784,-0.335,-15081
3.785,-0.346,-15081
3.786,-0.352,-15081
3.787,-0.354,-15094
3.788,-0.350,-15094
3.789,-0.334,-15094
3.790,-0.321,-15094
3.791,-0.299,-15094
3.792,-0.286,-15094
3.793,-0.269,-15094
3.794,-0.254,-15094
3.795,-0.245,-15094
3.796,-0.230,-15094
3.797,-0.226,-15088
3.798,-0.233,-15088
3.799,-0.241,-15088
3.800,-0.266,-15088
3.801,-0.276,-15088
3.802,-0.289,-15088
3.803,-0.302,-15088
3.804,-0.311,-15088
3.805,-0.323,-15088
3.806,-0.326,-15085
3.807,-0.324,-15085
3.808,-0.321,-15085
3.809,-0.304,-15085
3.810,-0.290,-15085
3.811,-0.274,-15085
3.812,-0.261,-15085
3.813,-0.249,-15085
3.814,-0.234,-15085
3.815,-0.228,-15085
3.816,-0.229,-15078
3.817,-0.241,-15078
3.818,-0.251,-15078
3.819,-0.266,-15078
3.820,-0.296,-15078
3.821,-0.311,-15078
3.822,-0.329,-15078
3.823,-0.336,-15078
3.824,-0.345,-15078
3.825,-0.345,-15071
3.826,-0.341,-15071
3.827,-0.331,-15071
3.828,-0.321,-15071
3.829,-0.301,-15071
3.830,-0.281,-15071
3.831,-0.263,-15071
3.832,-0.247,-15071
3.833,-0.226,-15071
3.834,-0.214,-15071
3.835,-0.206,-15071
3.836,-0.205,-15111
3.837,-0.211,-15111
3.838,-0.217,-15111
3.839,-0.234,-15111
3.840,-0.274,-15111
3.841,-0.284,-15111
3.842,-0.301,-15111
3.843,-0.305,-15111
3.844,-0.310,-15111
3.845,-0.311,-15110
3.846,-0.310,-15110
3.847,-0.306,-15110
3.848,-0.291,-15110
3.849,-0.284,-15110
3.850,-0.266,-15110
3.851,-0.255,-15110
3.852,-0.244,-15110
3.853,-0.230,-15110
3.854,-0.224,-15110
3.855,-0.229,-15070
3.856,-0.241,-15070
3.857,-0.251,-15070
3.858,-0.269,-15070
3.859,-0.286,-15070
3.860,-0.321,-15070
3.861,-0.334,-15070
3.862,-0.334,-15070
3.863,-0.331,-15054
3.864,-0.325,-15054
3.865,-0.309,-15054
3.866,-0.291,-15054
3.867,-0.276,-15054
3.868,-0.261,-15054
3.869,-0.244,-15054
3.870,-0.230,-15054
3.871,-0.221,-15054
3.872,-0.216,-15054
3.873,-0.216,-15042
3.874,-0.224,-15042
3.875,-0.230,-15042
3.876,-0.247,-15042
3.877,-0.261,-15042
3.878,-0.273,-15042
3.879,-0.284,-15042
3.880,-0.304,-15042
3.881,-0.302,-15042
3.882,-0.296,-15038
3.883,-0.291,-15038
3.884,-0.281,-15038
3.885,-0.268,-15038
3.886,-0.255,-15038
3.887,-0.241,-15038
3.888,-0.224,-15038
3.889,-0.207,-15038
3.890,-0.201,-15038
3.891,-0.189,-15038
3.892,-0.184,-15038
3.893,-0.176,-15038
3.894,-0.175,-15038
3.895,-0.181,-15038
3.896,-0.176,-15038
3.897,-0.184,-15038
3.898,-0.185,-15038
3.899,-0.188,-15038
3.900,-0.181,-15038
3.901,-0.170,-15022
3.902,-0.151,-15022
3.903,-0.142,-15022
3.904,-0.131,-15022
3.905,-0.124,-15022
3.906,-0.111,-15022
3.907,-0.109,-15022
3.908,-0.105,-15022
3.909,-0.098,-15022
3.910,-0.101,-15022
3.911,-0.096,-15018
3.912,-0.104,-15018
3.913,-0.106,-15018
3.914,-0.121,-15018
3.915,-0.129,-15018
3.916,-0.141,-15018
3.917,-0.151,-15018
3.918,-0.164,-15018
3.919,-0.166,-15018
3.920,-0.152,-15015
3.921,-0.130,-15015
3.922,-0.114,-15015
3.923,-0.095,-15015
3.924,-0.081,-15015
3.925,-0.055,-15015
3.926,-0.044,-15015
3.927,-0.034,-15015
3.928,-0.033,-15015
3.929,-0.041,-14984
3.930,-0.046,-14984
3.931,-0.055,-14984
3.932,-0.070,-14984
3.933,-0.090,-14984
3.934,-0.104,-14984
3.935,-0.120,-14984
3.936,-0.124,-14984
3.937,-0.128,-14984
3.938,-0.130,-14984
3.939,-0.128,-14956
3.940,-0.113,-14956
3.941,-0.106,-14956
3.942,-0.091,-14956
3.943,-0.084,-14956
3.944,-0.069,-14956
3.945,-0.064,-14956
3.946,-0.059,-14956
3.947,-0.059,-14956
3.948,-0.069,-14959
3.949,-0.086,-14959
3.950,-0.101,-14959
3.951,-0.120,-14959
3.952,-0.181,-14959
3.953,-0.196,-14959
3.954,-0.186,-14959
3.955,-0.209,-14959
3.956,-0.224,-14959
3.957,-0.231,-14959
3.958,-0.240,-14958
3.959,-0.244,-14958
3.960,-0.211,-14958
3.961,-0.196,-14958
3.962,-0.185,-14958
3.963,-0.172,-14958
3.964,-0.161,-14958
3.965,-0.149,-14958
3.966,-0.149,-14958
3.967,-0.151,-14930
3.968,-0.166,-14930
3.969,-0.181,-14930
3.970,-0.195,-14930
3.971,-0.215,-14930
3.972,-0.229,-14930
3.973,-0.246,-14930
3.974,-0.254,-14930
3.975,-0.260,-14930
3.976,-0.255,-14930
3.977,-0.250,-14932
3.978,-0.233,-14932
3.979,-0.221,-14932
3.980,-0.188,-14932
3.981,-0.174,-14932
3.982,-0.164,-14932
3.983,-0.144,-14932
3.984,-0.149,-14932
3.985,-0.151,-14932
3.986,-0.164,-14914
3.987,-0.181,-14914
3.988,-0.195,-14914
3.989,-0.211,-14914
3.990,-0.229,-14914
3.991,-0.246,-14914
3.992,-0.265,-14914
3.993,-0.275,-14914
3.994,-0.289,-14914
3.995,-0.291,-14914
3.996,-0.292,-14904
3.997,-0.286,-14904
3.998,-0.276,-14904
3.999,-0.266,-14904
4.000,-0.229,-14904
4.001,-0.216,-14904
4.002,-0.205,-14904
4.003,-0.196,-14904
4.004,-0.191,-14904
4.005,-0.194,-14883
4.006,-0.204,-14883
4.007,-0.214,-14883
4.008,-0.233,-14883
4.009,-0.255,-14883
4.010,-0.271,-14883
4.011,-0.290,-14883
4.012,-0.302,-14883
4.013,-0.309,-14883
4.014,-0.310,-14883
4.015,-0.305,-14885
4.016,-0.294,-14885
4.017,-0.275,-14885
4.018,-0.260,-14885
4.019,-0.230,-14885
4.020,-0.186,-14885
4.021,-0.171,-14885
4.022,-0.161,-14885
4.023,-0.150,-14885
4.024,-0.150,-14908
4.025,-0.161,-14908
4.026,-0.171,-14908
4.027,-0.184,-14908
4.028,-0.196,-14908
4.029,-0.209,-14908
4.030,-0.221,-14908
4.031,-0.229,-14908
4.032,-0.240,-14908
4.033,-0.241,-14908
4.034,-0.231,-14894
4.035,-0.233,-14894
4.036,-0.228,-14894
4.037,-0.216,-14894
4.038,-0.210,-14894
4.039,-0.204,-14894
4.040,-0.196,-14894
4.041,-0.203,-14894
4.042,-0.204,-14894
4.043,-0.210,-14876
4.044,-0.226,-14876
4.045,-0.246,-14876
4.046,-0.264,-14876
4.047,-0.295,-14876
4.048,-0.296,-14876
4.049,-0.306,-14876
4.050,-0.309,-14876
4.051,-0.304,-14876
4.052,-0.287,-14876
4.053,-0.261,-14865
4.054,-0.224,-14865
4.055,-0.176,-14865
4.056,-0.115,-14865
4.057,-0.051,-14865
4.058,0.035,-14865
4.059,0.125,-14865
4.060,0.346,-14865
4.061,0.430,-14865
4.062,0.532,-14860
4.063,0.635,-14860
4.064,0.741,-14860
4.065,0.840,-14860
4.066,0.954,-14860
4.067,1.069,-14860
4.068,1.194,-14860
4.069,1.335,-14860
4.070,1.485,-14860
4.071,1.639,-14860
4.072,1.805,-14860
4.073,1.949,-14825
4.074,2.059,-14825
4.075,2.139,-14825
4.076,2.179,-14825
4.077,2.169,-14825
4.078,2.116,-14825
4.079,2.101,-14825
4.080,1.758,-14825
4.081,1.626,-14825
4.082,1.452,-14834
4.083,1.259,-14834
4.084,1.074,-14834
4.085,0.889,-14834
4.086,0.696,-14834
4.087,0.514,-14834
4.088,0.344,-14834
4.089,0.188,-14834
4.090,0.056,-14834
4.091,-0.061,-14834
4.092,-0.151,-14808
4.093,-0.226,-14808
4.094,-0.286,-14808
4.095,-0.341,-14808
4.096,-0.376,-14808
4.097,-0.410,-14808
4.098,-0.434,-14808
4.099,-0.453,-14808
4.100,-0.504,-14803
4.101,-0.546,-14803
4.102,-0.569,-14803
4.103,-0.589,-14803
4.104,-0.603,-14803
4.105,-0.611,-14803
4.106,-0.609,-14803
4.107,-0.604,-14803
4.108,-0.576,-14803
4.109,-0.561,-14803
4.110,-0.526,-14772
4.111,-0.492,-14772
4.112,-0.453,-14772
4.113,-0.421,-14772
4.114,-0.384,-14772
4.115,-0.356,-14772
4.116,-0.335,-14772
4.117,-0.312,-14772
4.118,-0.304,-14772
4.119,-0.301,-14772
4.120,-0.321,-14805
4.121,-0.349,-14805
4.122,-0.366,-14805
4.123,-0.381,-14805
4.124,-0.401,-14805
4.125,-0.411,-14805
4.126,-0.416,-14805
4.127,-0.421,-14805
4.128,-0.421,-14783
4.129,-0.407,-14783
4.130,-0.389,-14783
4.131,-0.375,-14783
4.132,-0.357,-14783
4.133,-0.344,-14783
4.134,-0.333,-14783
4.135,-0.325,-14783
4.136,-0.321,-14783
4.137,-0.321,-14783
4.138,-0.330,-14763
4.139,-0.340,-14763
4.140,-0.370,-14763
4.141,-0.384,-14763
4.142,-0.386,-14763
4.143,-0.394,-14763
4.144,-0.401,-14763
4.145,-0.393,-14763
4.146,-0.386,-14763
4.147,-0.374,-14766
4.148,-0.356,-14766
4.149,-0.344,-14766
4.150,-0.324,-14766
4.151,-0.306,-14766
4.152,-0.294,-14766
4.153,-0.286,-14766
4.154,-0.284,-14766
4.155,-0.284,-14766
4.156,-0.285,-14766
4.157,-0.290,-14747
4.158,-0.294,-14747
4.159,-0.305,-14747
4.160,-0.329,-14747
4.161,-0.344,-14747
4.162,-0.350,-14747
4.163,-0.356,-14747
4.164,-0.361,-14747
4.165,-0.364,-14747
4.166,-0.354,-14735
4.167,-0.349,-14735
4.168,-0.331,-14735
4.169,-0.321,-14735
4.170,-0.304,-14735
4.171,-0.294,-14735
4.172,-0.285,-14735
4.173,-0.281,-14735
4.174,-0.281,-14735
4.175,-0.281,-14735
4.176,-0.289,-14707
4.177,-0.290,-14707
4.178,-0.309,-14707
4.179,-0.324,-14707
4.180,-0.349,-14707
4.181,-0.356,-14707
4.182,-0.367,-14707
4.183,-0.369,-14707
4.184,-0.364,-14707
4.185,-0.350,-14682
4.186,-0.326,-14682
4.187,-0.310,-14682
4.188,-0.294,-14682
4.189,-0.284,-14682
4.190,-0.271,-14682
4.191,-0.265,-14682
4.192,-0.264,-14682
4.193,-0.261,-14682
4.194,-0.265,-14693
4.195,-0.271,-14693
4.196,-0.275,-14693
4.197,-0.287,-14693
4.198,-0.290,-14693
4.199,-0.300,-14693
4.200,-0.330,-14693
4.201,-0.321,-14693
4.202,-0.320,-14693
4.203,-0.307,-14659
4.204,-0.301,-14659
4.205,-0.291,-14659
4.206,-0.284,-14659
4.207,-0.271,-14659
4.208,-0.264,-14659
4.209,-0.251,-14659
4.210,-0.244,-14659
4.211,-0.244,-14659
4.212,-0.231,-14659
4.213,-0.233,-14651
4.214,-0.234,-14651
4.215,-0.246,-14651
4.216,-0.251,-14651
4.217,-0.256,-14651
4.218,-0.269,-14651
4.219,-0.274,-14651
4.220,-0.281,-14651
4.221,-0.274,-14651
4.222,-0.266,-14617
4.223,-0.255,-14617
4.224,-0.245,-14617
4.225,-0.229,-14617
4.226,-0.216,-14617
4.227,-0.209,-14617
4.228,-0.203,-14617
4.229,-0.196,-14617
4.230,-0.194,-14617
4.231,-0.194,-14617
4.232,-0.195,-14622
4.233,-0.242,-14622
4.234,-0.211,-14622
4.235,-0.217,-14622
4.236,-0.224,-14622
4.237,-0.230,-14622
4.238,-0.234,-14622
4.239,-0.246,-14622
4.240,-0.244,-14622
4.241,-0.230,-14607
4.242,-0.221,-14607
4.243,-0.207,-14607
4.244,-0.194,-14607
4.245,-0.174,-14607
4.246,-0.164,-14607
4.247,-0.151,-14607
4.248,-0.145,-14607
4.249,-0.146,-14607
4.250,-0.146,-14607
4.251,-0.154,-14619
4.252,-0.171,-14619
4.253,-0.184,-14619
4.254,-0.194,-14619
4.255,-0.209,-14619
4.256,-0.216,-14619
4.257,-0.224,-14619
4.258,-0.228,-14619
4.259,-0.226,-14619
4.260,-0.196,-14605
4.261,-0.160,-14605
4.262,-0.110,-14605
4.263,-0.122,-14605
4.264,-0.110,-14605
4.265,-0.104,-14605
4.266,-0.096,-14605
4.267,-0.091,-14605
4.268,-0.091,-14605
4.269,-0.089,-14615
4.270,-0.101,-14615
4.271,-0.109,-14615
4.272,-0.124,-14615
4.273,-0.134,-14615
4.274,-0.144,-14615
4.275,-0.161,-14615
4.276,-0.161,-14615
4.277,-0.161,-14615
4.278,-0.149,-14615
4.279,-0.134,-14642
4.280,-0.104,-14642
4.281,-0.090,-14642
4.282,-0.071,-14642
4.283,-0.061,-14642
4.284,-0.049,-14642
4.285,-0.044,-14642
4.286,-0.044,-14642
4.287,-0.046,-14642
4.288,-0.056,-14723
4.289,-0.066,-14723
4.290,-0.074,-14723
4.291,-0.091,-14723
4.292,-0.106,-14723
4.293,-0.111,-14723
4.294,-0.081,-14723
4.295,-0.125,-14723
4.296,-0.124,-14723
4.297,-0.114,-14723
4.298,-0.106,-14717
4.299,-0.094,-14717
4.300,-0.065,-14717
4.301,-0.051,-14717
4.302,-0.036,-14717
4.303,-0.026,-14717
4.304,-0.021,-14717
4.305,-0.022,-14717
4.306,-0.021,-14717
4.307,-0.028,-14717
4.308,-0.036,-14769
4.309,-0.051,-14769
4.310,-0.069,-14769
4.311,-0.089,-14769
4.312,-0.096,-14769
4.313,-0.111,-14769
4.314,-0.115,-14769
4.315,-0.121,-14769
4.316,-0.111,-14769
4.317,-0.101,-14769
4.318,-0.091,-14795
4.319,-0.081,-14795
4.320,-0.054,-14795
4.321,-0.049,-14795
4.322,-0.036,-14795
4.323,-0.034,-14795
4.324,-0.031,-14795
4.325,-0.086,-14795
4.326,-0.055,-14795
4.327,-0.071,-14823
4.328,-0.094,-14823
4.329,-0.109,-14823
4.330,-0.130,-14823
4.331,-0.151,-14823
4.332,-0.176,-14823
4.333,-0.189,-14823
4.334,-0.198,-14823
4.335,-0.196,-14823
4.336,-0.191,-14823
4.337,-0.186,-14862
4.338,-0.176,-14862
4.339,-0.166,-14862
4.340,-0.149,-14862
4.341,-0.142,-14862
4.342,-0.141,-14862
4.343,-0.150,-14862
4.344,-0.164,-14862
4.345,-0.184,-14862
4.346,-0.196,-14859
4.347,-0.216,-14859
4.348,-0.246,-14859
4.349,-0.266,-14859
4.350,-0.286,-14859
4.351,-0.299,-14859
4.352,-0.310,-14859
4.353,-0.324,-14859
4.354,-0.321,-14859
4.355,-0.309,-14859
4.356,-0.304,-14877
4.357,-0.294,-14877
4.358,-0.281,-14877
4.359,-0.266,-14877
4.360,-0.261,-14877
4.361,-0.254,-14877
4.362,-0.261,-14877
4.363,-0.274,-14877
4.364,-0.281,-14877
4.365,-0.304,-14870
4.366,-0.324,-14870
4.367,-0.346,-14870
4.368,-0.369,-14870
4.369,-0.389,-14870
4.370,-0.407,-14870
4.371,-0.421,-14870
4.372,-0.427,-14870
4.373,-0.427,-14870
4.374,-0.421,-14870
4.375,-0.409,-14888
4.376,-0.391,-14888
4.377,-0.376,-14888
4.378,-0.367,-14888
4.379,-0.354,-14888
4.380,-0.349,-14888
4.381,-0.349,-14888
4.382,-0.351,-14888
4.383,-0.356,-14888
4.384,-0.371,-14885
4.385,-0.384,-14885
4.386,-0.401,-14885
4.387,-0.414,-14885
4.388,-0.429,-14885
4.389,-0.435,-14885
4.390,-0.444,-14885
4.391,-0.446,-14885
4.392,-0.445,-14885
4.393,-0.444,-14885
4.394,-0.431,-14881
4.395,-0.422,-14881
4.396,-0.410,-14881
4.397,-0.393,-14881
4.398,-0.378,-14881
4.399,-0.374,-14881
4.400,-0.371,-14881
4.401,-0.376,-14881
4.402,-0.389,-14881
4.403,-0.409,-14858
4.404,-0.424,-14858
4.405,-0.441,-14858
4.406,-0.451,-14858
4.407,-0.461,-14858
4.408,-0.466,-14858
4.409,-0.463,-14858
4.410,-0.454,-14858
4.411,-0.444,-14858
4.412,-0.427,-14858
4.413,-0.411,-14872
4.414,-0.394,-14872
4.415,-0.384,-14872
4.416,-0.369,-14872
4.417,-0.356,-14872
4.418,-0.351,-14872
4.419,-0.349,-14872
4.420,-0.354,-14872
4.421,-0.369,-14872
4.422,-0.376,-14861
4.423,-0.388,-14861
4.424,-0.401,-14861
4.425,-0.409,-14861
4.426,-0.414,-14861
4.427,-0.422,-14861
4.428,-0.424,-14861
4.429,-0.422,-14861
4.430,-0.414,-14861
4.431,-0.404,-14861
4.432,-0.386,-14870
4.433,-0.370,-14870
4.434,-0.346,-14870
4.435,-0.331,-14870
4.436,-0.309,-14870
4.437,-0.294,-14870
4.438,-0.289,-14870
4.439,-0.289,-14870
4.440,-0.309,-14870
4.441,-0.331,-14874
4.442,-0.366,-14874
4.443,-0.381,-14874
4.444,-0.400,-14874
4.445,-0.407,-14874
4.446,-0.407,-14874
4.447,-0.404,-14874
4.448,-0.389,-14874
4.449,-0.376,-14874
4.450,-0.425,-14938
4.451,-0.341,-14938
4.452,-0.323,-14938
4.453,-0.304,-14938
4.454,-0.292,-14938
4.455,-0.284,-14938
4.456,-0.281,-14938
4.457,-0.281,-14938
4.458,-0.289,-14938
4.459,-0.302,-14938
4.460,-0.335,-14893
4.461,-0.364,-14893
4.462,-0.371,-14893
4.463,-0.386,-14893
4.464,-0.384,-14893
4.465,-0.384,-14893
4.466,-0.375,-14893
4.467,-0.364,-14893
4.468,-0.349,-14894
4.469,-0.334,-14894
4.470,-0.311,-14894
4.471,-0.296,-14894
4.472,-0.282,-14894
4.473,-0.268,-14894
4.474,-0.261,-14894
4.475,-0.261,-14894
4.476,-0.261,-14894
4.477,-0.266,-14894
4.478,-0.273,-14891
4.479,-0.289,-14891
4.480,-0.271,-14891
4.481,-0.336,-14891
4.482,-0.336,-14891
4.483,-0.336,-14891
4.484,-0.326,-14891
4.485,-0.309,-14891
4.486,-0.289,-14891
4.487,-0.271,-14891
4.488,-0.251,-14891
4.489,-0.229,-14891
4.490,-0.215,-14891
4.491,-0.199,-14891
4.492,-0.189,-14891
4.493,-0.188,-14891
4.494,-0.190,-14891
4.495,-0.198,-14891
4.496,-0.215,-14865
4.497,-0.241,-14865
4.498,-0.260,-14865
4.499,-0.275,-14865
4.500,-0.301,-14865
4.501,-0.305,-14865
4.502,-0.302,-14865
4.503,-0.296,-14865
4.504,-0.284,-14865
4.505,-0.269,-14880
4.506,-0.226,-14880
4.507,-0.210,-14880
4.508,-0.194,-14880
4.509,-0.184,-14880
4.510,-0.176,-14880
4.511,-0.176,-14880
4.512,-0.180,-14880
4.513,-0.184,-14880
4.514,-0.194,-14878
4.515,-0.210,-14878
4.516,-0.225,-14878
4.517,-0.244,-14878
4.518,-0.254,-14878
4.519,-0.266,-14878
4.520,-0.268,-14878
4.521,-0.266,-14878
4.522,-0.255,-14878
4.523,-0.244,-14856
4.524,-0.229,-14856
4.525,-0.210,-14856
4.526,-0.194,-14856
4.527,-0.181,-14856
4.528,-0.169,-14856
4.529,-0.165,-14856
4.530,-0.166,-14856
4.531,-0.174,-14856
4.532,-0.186,-14856
4.533,-0.196,-14865
4.534,-0.219,-14865
4.535,-0.241,-14865
4.536,-0.251,-14865
4.537,-0.265,-14865
4.538,-0.269,-14865
4.539,-0.276,-14865
4.540,-0.256,-14865
4.541,-0.241,-14865
4.542,-0.224,-14886
4.543,-0.211,-14886
4.544,-0.195,-14886
4.545,-0.181,-14886
4.546,-0.170,-14886
4.547,-0.161,-14886
4.548,-0.151,-14886
4.549,-0.149,-14886
4.550,-0.154,-14886
4.551,-0.169,-14886
4.552,-0.184,-14886
4.553,-0.206,-14868
4.554,-0.226,-14868
4.555,-0.246,-14868
4.556,-0.264,-14868
4.557,-0.271,-14868
4.558,-0.284,-14868
4.559,-0.289,-14868
4.560,-0.284,-14868
4.561,-0.275,-14868
4.562,-0.268,-14871
4.563,-0.250,-14871
4.564,-0.246,-14871
4.565,-0.231,-14871
4.566,-0.231,-14871
4.567,-0.234,-14871
4.568,-0.241,-14871
4.569,-0.249,-14871
4.570,-0.264,-14871
4.571,-0.274,-14868
4.572,-0.290,-14868
4.573,-0.323,-14868
4.574,-0.311,-14868
4.575,-0.324,-14868
4.576,-0.329,-14868
4.577,-0.328,-14868
4.578,-0.321,-14868
4.579,-0.306,-14868
4.580,-0.273,-14883
4.581,-0.245,-14883
4.582,-0.229,-14883
4.583,-0.224,-14883
4.584,-0.214,-14883
4.585,-0.223,-14883
4.586,-0.231,-14883
4.587,-0.245,-14883
4.588,-0.261,-14883
4.589,-0.281,-14873
4.590,-0.301,-14873
4.591,-0.324,-14873
4.592,-0.336,-14873
4.593,-0.349,-14873
4.594,-0.351,-14873
4.595,-0.352,-14873
4.596,-0.350,-14873
4.597,-0.343,-14873
4.598,-0.326,-14873
4.599,-0.306,-14908
4.600,-0.269,-14908
4.601,-0.255,-14908
4.602,-0.214,-14908
4.603,-0.224,-14908
4.604,-0.216,-14908
4.605,-0.215,-14908
4.606,-0.217,-14908
4.607,-0.224,-14908
4.608,-0.241,-14934
4.609,-0.255,-14934
4.610,-0.269,-14934
4.611,-0.285,-14934
4.612,-0.294,-14934
4.613,-0.304,-14934
4.614,-0.305,-14934
4.615,-0.304,-14934
4.616,-0.296,-14934
4.617,-0.290,-14934
4.618,-0.274,-14888
4.619,-0.256,-14888
4.620,-0.215,-14888
4.621,-0.204,-14888
4.622,-0.191,-14888
4.623,-0.189,-14888
4.624,-0.193,-14888
4.625,-0.196,-14888
4.626,-0.212,-14888
4.627,-0.229,-14867
4.628,-0.251,-14867
4.629,-0.270,-14867
4.630,-0.289,-14867
4.631,-0.306,-14867
4.632,-0.323,-14867
4.633,-0.329,-14867
4.634,-0.325,-14867
4.635,-0.289,-14867
4.636,-0.301,-14867
4.637,-0.289,-14857
4.638,-0.274,-14857
4.639,-0.254,-14857
4.640,-0.211,-14857
4.641,-0.194,-14857
4.642,-0.194,-14857
4.643,-0.196,-14857
4.644,-0.209,-14857
4.645,-0.225,-14863
4.646,-0.241,-14863
4.647,-0.256,-14863
4.648,-0.271,-14863
4.649,-0.286,-14863
4.650,-0.292,-14863
4.651,-0.292,-14863
4.652,-0.286,-14863
4.653,-0.281,-14863
4.654,-0.270,-14863
4.655,-0.254,-14816
4.656,-0.241,-14816
4.657,-0.225,-14816
4.658,-0.212,-14816
4.659,-0.206,-14816
4.660,-0.209,-14816
4.661,-0.228,-14816
4.662,-0.244,-14816
4.663,-0.261,-14835
4.664,-0.286,-14835
4.665,-0.296,-14835
4.666,-0.304,-14835
4.667,-0.305,-14835
4.668,-0.295,-14835
4.669,-0.287,-14835
4.670,-0.271,-14835
4.671,-0.261,-14835
4.672,-0.244,-14815
4.673,-0.229,-14815
4.674,-0.214,-14815
4.675,-0.206,-14815
4.676,-0.195,-14815
4.677,-0.196,-14815
4.678,-0.196,-14815
4.679,-0.204,-14815
4.680,-0.234,-14815
4.681,-0.250,-14793
4.682,-0.271,-14793
4.683,-0.281,-14793
4.684,-0.291,-14793
4.685,-0.304,-14793
4.686,-0.307,-14793
4.687,-0.311,-14793
4.688,-0.302,-14793
4.689,-0.291,-14793
4.690,-0.273,-14793
4.691,-0.253,-14792
4.692,-0.231,-14792
4.693,-0.215,-14792
4.694,-0.196,-14792
4.695,-0.190,-14792
4.696,-0.180,-14792
4.697,-0.174,-14792
4.698,-0.175,-14792
4.699,-0.180,-14792
4.700,-0.190,-14825
4.701,-0.211,-14825
4.702,-0.224,-14825
4.703,-0.230,-14825
4.704,-0.244,-14825
4.705,-0.246,-14825
4.706,-0.241,-14825
4.707,-0.229,-14825
4.708,-0.219,-14825
4.709,-0.206,-14779
4.710,-0.194,-14779
4.711,-0.184,-14779
4.712,-0.169,-14779
4.713,-0.163,-14779
4.714,-0.151,-14779
4.715,-0.152,-14779
4.716,-0.166,-14779
4.717,-0.174,-14779
4.718,-0.184,-14779
4.719,-0.199,-14800
4.720,-0.234,-14800
4.721,-0.247,-14800
4.722,-0.256,-14800
4.723,-0.255,-14800
4.724,-0.256,-14800
4.725,-0.244,-14800
4.726,-0.216,-14800
4.727,-0.195,-14800
4.728,-0.174,-14775
4.729,-0.145,-14775
4.730,-0.125,-14775
4.731,-0.102,-14775
4.732,-0.091,-14775
4.733,-0.081,-14775
4.734,-0.084,-14775
4.735,-0.092,-14775
4.736,-0.106,-14775
4.737,-0.128,-14775
4.738,-0.150,-14763
4.739,-0.181,-14763
4.740,-0.226,-14763
4.741,-0.249,-14763
4.742,-0.261,-14763
4.743,-0.271,-14763
4.744,-0.271,-14763
4.745,-0.266,-14763
4.746,-0.250,-14763
4.747,-0.231,-14780
4.748,-0.214,-14780
4.749,-0.196,-14780
4.750,-0.185,-14780
4.751,-0.176,-14780
4.752,-0.176,-14780
4.753,-0.186,-14780
4.754,-0.195,-14780
4.755,-0.215,-14780
4.756,-0.231,-14780
4.757,-0.304,-14776
4.758,-0.281,-14776
4.759,-0.304,-14776
4.760,-0.341,-14776
4.761,-0.349,-14776
4.762,-0.354,-14776
4.763,-0.349,-14776
4.764,-0.346,-14776
4.765,-0.336,-14776
4.766,-0.326,-14758
4.767,-0.310,-14758
4.768,-0.296,-14758
4.769,-0.284,-14758
4.770,-0.274,-14758
4.771,-0.266,-14758
4.772,-0.261,-14758
4.773,-0.266,-14758
4.774,-0.269,-14758
4.775,-0.281,-14758
4.776,-0.294,-14739
4.777,-0.310,-14739
4.778,-0.330,-14739
4.779,-0.343,-14739
4.780,-0.364,-14739
4.781,-0.366,-14739
4.782,-0.364,-14739
4.783,-0.356,-14739
4.784,-0.347,-14739
4.785,-0.334,-14739
4.786,-0.324,-14758
4.787,-0.305,-14758
4.788,-0.292,-14758
4.789,-0.285,-14758
4.790,-0.281,-14758
4.791,-0.281,-14758
4.792,-0.284,-14758
4.793,-0.286,-14758
4.794,-0.295,-14758
4.795,-0.305,-14758
4.796,-0.311,-14746
4.797,-0.329,-14746
4.798,-0.341,-14746
4.799,-0.346,-14746
4.800,-0.352,-14746
4.801,-0.349,-14746
4.802,-0.344,-14746
4.803,-0.334,-14746
4.804,-0.324,-14746
4.805,-0.301,-14749
4.806,-0.286,-14749
4.807,-0.274,-14749
4.808,-0.266,-14749
4.809,-0.261,-14749
4.810,-0.264,-14749
4.811,-0.269,-14749
4.812,-0.281,-14749
4.813,-0.289,-14749
4.814,-0.302,-14749
4.815,-0.324,-14775
4.816,-0.331,-14775
4.817,-0.344,-14775
4.818,-0.350,-14775
4.819,-0.355,-14775
4.820,-0.351,-14775
4.821,-0.344,-14775
4.822,-0.324,-14775
4.823,-0.310,-14775
4.824,-0.295,-14750
4.825,-0.284,-14750
4.826,-0.271,-14750
4.827,-0.256,-14750
4.828,-0.250,-14750
4.829,-0.251,-14750
4.830,-0.253,-14750
4.831,-0.263,-14750
4.832,-0.270,-14750
4.833,-0.285,-14750
4.834,-0.299,-14723
4.835,-0.321,-14723
4.836,-0.341,-14723
4.837,-0.356,-14723
4.838,-0.369,-14723
4.839,-0.378,-14723
4.840,-0.384,-14723
4.841,-0.381,-14723
4.842,-0.372,-14723
4.843,-0.364,-14723
4.844,-0.352,-14723
4.845,-0.346,-14723
4.846,-0.343,-14723
4.847,-0.336,-14723
4.848,-0.336,-14723
4.849,-0.336,-14723
4.850,-0.331,-14723
4.851,-0.328,-14723
4.852,-0.310,-14723
4.853,-0.287,-14690
4.854,-0.256,-14690
4.855,-0.211,-14690
4.856,-0.163,-14690
4.857,-0.095,-14690
4.858,-0.015,-14690
4.859,0.085,-14690
4.860,0.316,-14690
4.861,0.426,-14690
4.862,0.554,-14704
4.863,0.694,-14704
4.864,0.829,-14704
4.865,0.975,-14704
4.866,1.126,-14704
4.867,1.286,-14704
4.868,1.445,-14704
4.869,1.606,-14704
4.870,1.750,-14704
4.871,1.894,-14704
4.872,1.996,-14710
4.873,2.076,-14710
4.874,2.109,-14710
4.875,2.096,-14710
4.876,2.046,-14710
4.877,1.959,-14710
4.878,1.855,-14710
4.879,1.736,-14710
4.880,1.464,-14710
4.881,1.395,-14674
4.882,1.239,-14674
4.883,1.014,-14674
4.884,0.856,-14674
4.885,0.691,-14674
4.886,0.519,-14674
4.887,0.356,-14674
4.888,0.204,-14674
4.889,0.059,-14674
4.890,-0.081,-14674
4.891,-0.199,-14679
4.892,-0.307,-14679
4.893,-0.404,-14679
4.894,-0.481,-14679
4.895,-0.536,-14679
4.896,-0.585,-14679
4.897,-0.611,-14679
4.898,-0.626,-14679
4.899,-0.631,-14679
4.900,-0.624,-14651
4.901,-0.604,-14651
4.902,-0.584,-14651
4.903,-0.571,-14651
4.904,-0.551,-14651
4.905,-0.536,-14651
4.906,-0.525,-14651
4.907,-0.516,-14651
4.908,-0.511,-14651
4.909,-0.505,-14634
4.910,-0.495,-14634
4.911,-0.491,-14634
4.912,-0.484,-14634
4.913,-0.471,-14634
4.914,-0.456,-14634
4.915,-0.441,-14634
4.916,-0.424,-14634
4.917,-0.391,-14634
4.918,-0.370,-14634
4.919,-0.349,-14640
4.920,-0.306,-14640
4.921,-0.304,-14640
4.922,-0.302,-14640
4.923,-0.314,-14640
4.924,-0.326,-14640
4.925,-0.341,-14640
4.926,-0.356,-14640
4.927,-0.367,-14640
4.928,-0.385,-14617
4.929,-0.394,-14617
4.930,-0.406,-14617
4.931,-0.411,-14617
4.932,-0.410,-14617
4.933,-0.409,-14617
4.934,-0.391,-14617
4.935,-0.383,-14617
4.936,-0.369,-14617
4.937,-0.352,-14617
4.938,-0.341,-14591
4.939,-0.324,-14591
4.940,-0.291,-14591
4.941,-0.285,-14591
4.942,-0.284,-14591
4.943,-0.331,-14591
4.944,-0.297,-14591
4.945,-0.309,-14591
4.946,-0.329,-14591
4.947,-0.344,-14591
4.948,-0.365,-14591
4.949,-0.370,-14591
4.950,-0.376,-14591
4.951,-0.381,-14591
4.952,-0.378,-14591
4.953,-0.374,-14591
4.954,-0.362,-14591
4.955,-0.350,-14591
4.956,-0.335,-14591
4.957,-0.311,-14585
4.958,-0.299,-14585
4.959,-0.290,-14585
4.960,-0.280,-14585
4.961,-0.281,-14585
4.962,-0.286,-14585
4.963,-0.291,-14585
4.964,-0.304,-14585
4.965,-0.311,-14585
4.966,-0.330,-14577
4.967,-0.346,-14577
4.968,-0.351,-14577
4.969,-0.362,-14577
4.970,-0.364,-14577
4.971,-0.362,-14577
4.972,-0.355,-14577
4.973,-0.347,-14577
4.974,-0.333,-14577
4.975,-0.320,-14577
4.976,-0.301,-14561
4.977,-0.286,-14561
4.978,-0.274,-14561
4.979,-0.261,-14561
4.980,-0.246,-14561
4.981,-0.251,-14561
4.982,-0.256,-14561
4.983,-0.268,-14561
4.984,-0.281,-14561
4.985,-0.289,-14564
4.986,-0.299,-14564
4.987,-0.309,-14564
4.988,-0.314,-14564
4.989,-0.323,-14564
4.990,-0.324,-14564
4.991,-0.310,-14564
4.992,-0.301,-14564
4.993,-0.287,-14564
4.994,-0.269,-14564
4.995,-0.254,-14573
4.996,-0.250,-14573
4.997,-0.241,-14573
4.998,-0.230,-14573
4.999,-0.226,-14573
5.000,-0.231,-14573
5.001,-0.246,-14573
5.002,-0.256,-14573
5.003,-0.270,-14573
5.004,-0.284,-14545
5.005,-0.296,-14545
5.006,-0.306,-14545
5.007,-0.321,-14545
5.008,-0.324,-14545
5.009,-0.324,-14545
5.010,-0.311,-14545
5.011,-0.301,-14545
5.012,-0.284,-14545
5.013,-0.265,-14545
5.014,-0.245,-14541
5.015,-0.224,-14541
5.016,-0.206,-14541
5.017,-0.189,-14541
5.018,-0.181,-14541
5.019,-0.181,-14541
5.020,-0.186,-14541
5.021,-0.191,-14541
5.022,-0.209,-14541
5.023,-0.221,-14511
5.024,-0.246,-14511
5.025,-0.254,-14511
5.026,-0.264,-14511
5.027,-0.269,-14511
5.028,-0.259,-14511
5.029,-0.249,-14511
5.030,-0.234,-14511
5.031,-0.210,-14511
5.032,-0.191,-14511
5.033,-0.171,-14522
5.034,-0.149,-14522
5.035,-0.135,-14522
5.036,-0.125,-14522
5.037,-0.116,-14522
5.038,-0.071,-14522
5.039,-0.131,-14522
5.040,-0.160,-14522
5.041,-0.171,-14525
5.042,-0.193,-14525
5.043,-0.204,-14525
5.044,-0.205,-14525
5.045,-0.204,-14525
5.046,-0.199,-14525
5.047,-0.193,-14525
5.048,-0.184,-14525
5.049,-0.171,-14525
5.050,-0.163,-14525
5.051,-0.141,-14497
5.052,-0.128,-14497
5.053,-0.111,-14497
5.054,-0.098,-14497
5.055,-0.095,-14497
5.056,-0.094,-14497
5.057,-0.095,-14497
5.058,-0.106,-14497
5.059,-0.114,-14497
5.060,-0.146,-14505
5.061,-0.174,-14505
5.062,-0.180,-14505
5.063,-0.176,-14505
5.064,-0.170,-14505
5.065,-0.154,-14505
5.066,-0.114,-14505
5.067,-0.121,-14505
5.068,-0.104,-14505
5.069,-0.089,-14497
5.070,-0.070,-14497
5.071,-0.055,-14497
5.072,-0.050,-14497
5.073,-0.044,-14497
5.074,-0.044,-14497
5.075,-0.050,-14497
5.076,-0.056,-14497
5.077,-0.068,-14497
5.078,-0.084,-14497
5.079,-0.091,-14541
5.080,-0.114,-14541
5.081,-0.114,-14541
5.082,-0.116,-14541
5.083,-0.106,-14541
5.084,-0.095,-14541
5.085,-0.074,-14541
5.086,-0.054,-14541
5.087,-0.034,-14541
5.088,-0.016,-14547
5.089,-0.005,-14547
5.090,0.014,-14547
5.091,0.024,-14547
5.092,0.024,-14547
5.093,0.024,-14547
5.094,0.019,-14547
5.095,0.007,-14547
5.096,-0.011,-14547
5.097,-0.026,-14547
5.098,-0.041,-14570
5.099,-0.054,-14570
5.100,-0.072,-14570
5.101,-0.070,-14570
5.102,-0.066,-14570
5.103,-0.055,-14570
5.104,-0.046,-14570
5.105,-0.031,-14570
5.106,-0.021,-14570
5.107,-0.011,-14609
5.108,-0.001,-14609
5.109,0.009,-14609
5.110,0.014,-14609
5.111,0.014,-14609
5.112,0.010,-14609
5.113,-0.006,-14609
5.114,-0.014,-14609
5.115,-0.031,-14609
5.116,-0.049,-14609
5.117,-0.056,-14647
5.118,-0.065,-14647
5.119,-0.071,-14647
5.120,-0.070,-14647
5.121,-0.064,-14647
5.122,-0.054,-14647
5.123,-0.044,-14647
5.124,-0.030,-14647
5.125,-0.020,-14675
5.126,-0.010,-14675
5.127,-0.006,-14675
5.128,-0.009,-14675
5.129,-0.014,-14675
5.130,-0.029,-14675
5.131,-0.041,-14675
5.132,-0.058,-14675
5.133,-0.081,-14675
5.134,-0.100,-14675
5.135,-0.122,-14666
5.136,-0.144,-14666
5.137,-0.154,-14666
5.138,-0.170,-14666
5.139,-0.175,-14666
5.140,-0.184,-14666
5.141,-0.169,-14666
5.142,-0.154,-14666
5.143,-0.151,-14666
5.144,-0.147,-14687
5.145,-0.144,-14687
5.146,-0.136,-14687
5.147,-0.136,-14687
5.148,-0.144,-14687
5.149,-0.154,-14687
5.150,-0.168,-14687
5.151,-0.185,-14687
5.152,-0.204,-14687
5.153,-0.221,-14687
5.154,-0.241,-14679
5.155,-0.255,-14679
5.156,-0.266,-14679
5.157,-0.274,-14679
5.158,-0.275,-14679
5.159,-0.271,-14679
5.160,-0.250,-14679
5.161,-0.245,-14679
5.162,-0.229,-14679
5.163,-0.225,-14670
5.164,-0.211,-14670
5.165,-0.210,-14670
5.166,-0.211,-14670
5.167,-0.217,-14670
5.168,-0.226,-14670
5.169,-0.245,-14670
5.170,-0.264,-14670
5.171,-0.281,-14670
5.172,-0.292,-14670
5.173,-0.310,-14659
5.174,-0.329,-14659
5.175,-0.336,-14659
5.176,-0.346,-14659
5.177,-0.350,-14659
5.178,-0.350,-14659
5.179,-0.347,-14659
5.180,-0.329,-14659
5.181,-0.311,-14659
5.182,-0.299,-14669
5.183,-0.285,-14669
5.184,-0.275,-14669
5.185,-0.269,-14669
5.186,-0.269,-14669
5.187,-0.273,-14669
5.188,-0.274,-14669
5.189,-0.284,-14669
5.190,-0.294,-14669
5.191,-0.309,-14669
5.192,-0.325,-14682
5.193,-0.341,-14682
5.194,-0.350,-14682
5.195,-0.354,-14682
5.196,-0.357,-14682
5.197,-0.351,-14682
5.198,-0.349,-14682
5.199,-0.336,-14682
5.200,-0.305,-14682
5.201,-0.290,-14669
5.202,-0.276,-14669
5.203,-0.268,-14669
5.204,-0.261,-14669
5.205,-0.264,-14669
5.206,-0.269,-14669
5.207,-0.281,-14669
5.208,-0.291,-14669
5.209,-0.309,-14669
5.210,-0.329,-14669
5.211,-0.345,-14664
5.212,-0.356,-14664
5.213,-0.367,-14664
5.214,-0.372,-14664
5.215,-0.374,-14664
5.216,-0.372,-14664
5.217,-0.367,-14664
5.218,-0.355,-14664
5.219,-0.344,-14664
5.220,-0.309,-14715
5.221,-0.295,-14715
5.222,-0.290,-14715
5.223,-0.286,-14715
5.224,-0.287,-14715
5.225,-0.289,-14715
5.226,-0.296,-14715
5.227,-0.310,-14715
5.228,-0.328,-14715
5.229,-0.341,-14679
5.230,-0.354,-14679
5.231,-0.369,-14679
5.232,-0.376,-14679
5.233,-0.383,-14679
5.234,-0.378,-14679
5.235,-0.371,-14679
5.236,-0.362,-14679
5.237,-0.341,-14679
5.238,-0.324,-14679
5.239,-0.301,-14691
5.240,-0.276,-14691
5.241,-0.275,-14691
5.242,-0.270,-14691
5.243,-0.285,-14691
5.244,-0.291,-14691
5.245,-0.311,-14691
5.246,-0.334,-14691
5.247,-0.351,-14691
5.248,-0.376,-14706
5.249,-0.393,-14706
5.250,-0.409,-14706
5.251,-0.416,-14706
5.252,-0.412,-14706
5.253,-0.401,-14706
5.254,-0.381,-14706
5.255,-0.361,-14706
5.256,-0.341,-14706
5.257,-0.321,-14706
5.258,-0.296,-14712
5.259,-0.284,-14712
5.260,-0.274,-14712
5.261,-0.276,-14712
5.262,-0.289,-14712
5.263,-0.304,-14712
5.264,-0.324,-14712
5.265,-0.334,-14712
5.266,-0.349,-14712
5.267,-0.364,-14712
5.268,-0.367,-14709
5.269,-0.370,-14709
5.270,-0.366,-14709
5.271,-0.356,-14709
5.272,-0.343,-14709
5.273,-0.328,-14709
5.274,-0.306,-14709
5.275,-0.286,-14709
5.276,-0.270,-14709
5.277,-0.255,-14709
5.278,-0.250,-14716
5.279,-0.241,-14716
5.280,-0.244,-14716
5.281,-0.246,-14716
5.282,-0.260,-14716
5.283,-0.271,-14716
5.284,-0.289,-14716
5.285,-0.309,-14716
5.286,-0.329,-14705
5.287,-0.346,-14705
5.288,-0.356,-14705
5.289,-0.364,-14705
5.290,-0.366,-14705
5.291,-0.357,-14705
5.292,-0.346,-14705
5.293,-0.331,-14705
5.294,-0.309,-14705
5.295,-0.286,-14705
5.296,-0.266,-14705
5.297,-0.250,-14733
5.298,-0.241,-14733
5.299,-0.231,-14733
5.300,-0.234,-14733
5.301,-0.244,-14733
5.302,-0.249,-14733
5.303,-0.268,-14733
5.304,-0.284,-14733
5.305,-0.302,-14733
5.306,-0.321,-14696
5.307,-0.329,-14696
5.308,-0.341,-14696
5.309,-0.343,-14696
5.310,-0.343,-14696
5.311,-0.333,-14696
5.312,-0.324,-14696
5.313,-0.306,-14696
5.314,-0.289,-14696
5.315,-0.280,-14696
5.316,-0.269,-14688
5.317,-0.255,-14688
5.318,-0.254,-14688
5.319,-0.256,-14688
5.320,-0.266,-14688
5.321,-0.281,-14688
5.322,-0.292,-14688
5.323,-0.310,-14688
5.324,-0.331,-14688
5.325,-0.346,-14691
5.326,-0.354,-14691
5.327,-0.365,-14691
5.328,-0.366,-14691
5.329,-0.364,-14691
5.330,-0.356,-14691
5.331,-0.345,-14691
5.332,-0.326,-14691
5.333,-0.305,-14691
5.334,-0.282,-14691
5.335,-0.265,-14681
5.336,-0.251,-14681
5.337,-0.244,-14681
5.338,-0.234,-14681
5.339,-0.231,-14681
5.340,-0.251,-14681
5.341,-0.265,-14681
5.342,-0.281,-14681
5.343,-0.294,-14681
5.344,-0.304,-14673
5.345,-0.312,-14673
5.346,-0.321,-14673
5.347,-0.309,-14673
5.348,-0.301,-14673
5.349,-0.289,-14673
5.350,-0.270,-14673
5.351,-0.264,-14673
5.352,-0.245,-14673
5.353,-0.229,-14673
5.354,-0.215,-14677
5.355,-0.210,-14677
5.356,-0.214,-14677
5.357,-0.221,-14677
5.358,-0.233,-14677
5.359,-0.254,-14677
5.360,-0.299,-14677
5.361,-0.323,-14677
5.362,-0.341,-14677
5.363,-0.349,-14678
5.364,-0.354,-14678
5.365,-0.349,-14678
5.366,-0.345,-14678
5.367,-0.335,-14678
5.368,-0.324,-14678
5.369,-0.304,-14678
5.370,-0.290,-14678
5.371,-0.276,-14678
5.372,-0.266,-14678
5.373,-0.256,-14673
5.374,-0.251,-14673
5.375,-0.249,-14673
5.376,-0.250,-14673
5.377,-0.256,-14673
5.378,-0.261,-14673
5.379,-0.269,-14673
5.380,-0.294,-14673
5.381,-0.305,-14673
5.382,-0.323,-14668
5.383,-0.331,-14668
5.384,-0.335,-14668
5.385,-0.329,-14668
5.386,-0.321,-14668
5.387,-0.304,-14668
5.388,-0.291,-14668
5.389,-0.276,-14668
5.390,-0.265,-14668
5.391,-0.251,-14689
5.392,-0.245,-14689
5.393,-0.241,-14689
5.394,-0.231,-14689
5.395,-0.241,-14689
5.396,-0.246,-14689
5.397,-0.246,-14689
5.398,-0.256,-14689
5.399,-0.266,-14689
5.400,-0.291,-14682
5.401,-0.306,-14682
5.402,-0.306,-14682
5.403,-0.296,-14682
5.404,-0.289,-14682
5.405,-0.276,-14682
5.406,-0.264,-14682
5.407,-0.250,-14682
5.408,-0.244,-14682
5.409,-0.226,-14660
5.410,-0.219,-14660
5.411,-0.216,-14660
5.412,-0.216,-14660
5.413,-0.225,-14660
5.414,-0.241,-14660
5.415,-0.254,-14660
5.416,-0.271,-14660
5.417,-0.285,-14660
5.418,-0.294,-14660
5.419,-0.304,-14675
5.420,-0.307,-14675
5.421,-0.305,-14675
5.422,-0.295,-14675
5.423,-0.286,-14675
5.424,-0.274,-14675
5.425,-0.261,-14675
5.426,-0.246,-14675
5.427,-0.229,-14675
5.428,-0.211,-14623
5.429,-0.209,-14623
5.430,-0.204,-14623
5.431,-0.201,-14623
5.432,-0.207,-14623
5.433,-0.216,-14623
5.434,-0.242,-14623
5.435,-0.256,-14623
5.436,-0.281,-14623
5.437,-0.294,-14623
5.438,-0.307,-14629
5.439,-0.323,-14629
5.440,-0.321,-14629
5.441,-0.311,-14629
5.442,-0.299,-14629
5.443,-0.286,-14629
5.444,-0.271,-14629
5.445,-0.249,-14629
5.446,-0.233,-14629
5.447,-0.215,-14610
5.448,-0.209,-14610
5.449,-0.206,-14610
5.450,-0.206,-14610
5.451,-0.210,-14610
5.452,-0.221,-14610
5.453,-0.231,-14610
5.454,-0.254,-14610
5.455,-0.264,-14610
5.456,-0.280,-14610
5.457,-0.289,-14592
5.458,-0.301,-14592
5.459,-0.296,-14592
5.460,-0.286,-14592
5.461,-0.281,-14592
5.462,-0.265,-14592
5.463,-0.251,-14592
5.464,-0.242,-14592
5.465,-0.225,-14592
5.466,-0.214,-14602
5.467,-0.209,-14602
5.468,-0.204,-14602
5.469,-0.201,-14602
5.470,-0.198,-14602
5.471,-0.205,-14602
5.472,-0.212,-14602
5.473,-0.224,-14602
5.474,-0.231,-14602
5.475,-0.246,-14602
5.476,-0.256,-14586
5.477,-0.269,-14586
5.478,-0.265,-14586
5.479,-0.264,-14586
5.480,-0.231,-14586
5.481,-0.224,-14586
5.482,-0.207,-14586
5.483,-0.189,-14586
5.484,-0.176,-14586
5.485,-0.164,-14585
5.486,-0.160,-14585
5.487,-0.161,-14585
5.488,-0.161,-14585
5.489,-0.172,-14585
5.490,-0.189,-14585
5.491,-0.206,-14585
5.492,-0.219,-14585
5.493,-0.241,-14585
5.494,-0.250,-14585
5.495,-0.263,-14587
5.496,-0.269,-14587
5.497,-0.275,-14587
5.498,-0.271,-14587
5.499,-0.266,-14587
5.500,-0.241,-14587
5.501,-0.226,-14587
5.502,-0.196,-14587
5.503,-0.194,-14587
5.504,-0.180,-14550
5.505,-0.166,-14550
5.506,-0.146,-14550
5.507,-0.139,-14550
5.508,-0.131,-14550
5.509,-0.131,-14550
5.510,-0.134,-14550
5.511,-0.138,-14550
5.512,-0.144,-14550
5.513,-0.149,-14550
5.514,-0.164,-14550
5.515,-0.169,-14528
5.516,-0.169,-14528
5.517,-0.171,-14528
5.518,-0.169,-14528
5.519,-0.165,-14528
5.520,-0.161,-14528
5.521,-0.150,-14528
5.522,-0.145,-14528
5.523,-0.136,-14528
5.524,-0.135,-14543
5.525,-0.131,-14543
5.526,-0.136,-14543
5.527,-0.145,-14543
5.528,-0.165,-14543
5.529,-0.181,-14543
5.530,-0.205,-14543
5.531,-0.225,-14543
5.532,-0.246,-14543
5.533,-0.256,-14543
5.534,-0.266,-14536
5.535,-0.270,-14536
5.536,-0.270,-14536
5.537,-0.261,-14536
5.538,-0.254,-14536
5.539,-0.251,-14536
5.540,-0.234,-14536
5.541,-0.233,-14536
5.542,-0.229,-14536
5.543,-0.231,-14538
5.544,-0.226,-14538
5.545,-0.230,-14538
5.546,-0.244,-14538
5.547,-0.251,-14538
5.548,-0.265,-14538
5.549,-0.282,-14538
5.550,-0.296,-14538
5.551,-0.314,-14538
5.552,-0.330,-14538
5.553,-0.344,-14527
5.554,-0.349,-14527
5.555,-0.349,-14527
5.556,-0.349,-14527
5.557,-0.341,-14527
5.558,-0.331,-14527
5.559,-0.321,-14527
5.560,-0.289,-14527
5.561,-0.281,-14527
5.562,-0.274,-14510
5.563,-0.274,-14510
5.564,-0.280,-14510
5.565,-0.284,-14510
5.566,-0.296,-14510
5.567,-0.310,-14510
5.568,-0.326,-14510
5.569,-0.340,-14510
5.570,-0.354,-14510
5.571,-0.364,-14510
5.572,-0.367,-14523
5.573,-0.370,-14523
5.574,-0.364,-14523
5.575,-0.361,-14523
5.576,-0.349,-14523
5.577,-0.336,-14523
5.578,-0.325,-14523
5.579,-0.310,-14523
5.580,-0.286,-14523
5.581,-0.284,-14497
5.582,-0.275,-14497
5.583,-0.281,-14497
5.584,-0.276,-14497
5.585,-0.290,-14497
5.586,-0.301,-14497
5.587,-0.306,-14497
5.588,-0.324,-14497
5.589,-0.331,-14497
5.590,-0.336,-14497
5.591,-0.345,-14474
5.592,-0.346,-14474
5.593,-0.346,-14474
5.594,-0.341,-14474
5.595,-0.330,-14474
5.596,-0.311,-14474
5.597,-0.299,-14474
5.598,-0.284,-14474
5.599,-0.269,-14474
5.600,-0.251,-14459
5.601,-0.246,-14459
5.602,-0.250,-14459
5.603,-0.261,-14459
5.604,-0.271,-14459
5.605,-0.284,-14459
5.606,-0.295,-14459
5.607,-0.304,-14459
5.608,-0.309,-14459
5.609,-0.321,-14458
5.610,-0.324,-14458
5.611,-0.321,-14458
5.612,-0.321,-14458
5.613,-0.304,-14458
5.614,-0.291,-14458
5.615,-0.276,-14458
5.616,-0.264,-14458
5.617,-0.254,-14458
5.618,-0.241,-14458
5.619,-0.241,-14440
5.620,-0.261,-14440
5.621,-0.274,-14440
5.622,-0.302,-14440
5.623,-0.325,-14440
5.624,-0.344,-14440
5.625,-0.364,-14440
5.626,-0.388,-14440
5.627,-0.364,-14440
5.628,-0.427,-14417
5.629,-0.434,-14417
5.630,-0.431,-14417
5.631,-0.421,-14417
5.632,-0.406,-14417
5.633,-0.379,-14417
5.634,-0.351,-14417
5.635,-0.312,-14417
5.636,-0.271,-14417
5.637,-0.224,-14417
5.638,-0.169,-14406
5.639,-0.104,-14406
5.640,0.039,-14406
5.641,0.102,-14406
5.642,0.184,-14406
5.643,0.269,-14406
5.644,0.364,-14406
5.645,0.464,-14406
5.646,0.574,-14406
5.647,0.686,-14406
5.648,0.799,-14406
5.649,0.929,-14406
5.650,1.069,-14406
5.651,1.229,-14406
5.652,1.397,-14406
5.653,1.574,-14406
5.654,1.754,-14406
5.655,1.914,-14406
5.656,2.055,-14406
5.657,2.144,-14398
5.658,2.171,-14398
5.659,2.144,-14398
5.660,1.946,-14398
5.661,1.825,-14398
5.662,1.674,-14398
5.663,1.510,-14398
5.664,1.331,-14398
5.665,1.144,-14398
5.666,0.955,-14389
5.667,0.771,-14389
5.668,0.594,-14389
5.669,0.431,-14389
5.670,0.284,-14389
5.671,0.139,-14389
5.672,0.031,-14389
5.673,-0.071,-14389
5.674,-0.151,-14389
5.675,-0.223,-14389
5.676,-0.282,-14391
5.677,-0.336,-14391
5.678,-0.388,-14391
5.679,-0.435,-14391
5.680,-0.516,-14391
5.681,-0.549,-14391
5.682,-0.581,-14391
5.683,-0.608,-14391
5.684,-0.629,-14391
5.685,-0.652,-14367
5.686,-0.650,-14367
5.687,-0.644,-14367
5.688,-0.616,-14367
5.689,-0.591,-14367
5.690,-0.552,-14367
5.691,-0.516,-14367
5.692,-0.475,-14367
5.693,-0.444,-14367
5.694,-0.406,-14367
5.695,-0.378,-14366
5.696,-0.365,-14366
5.697,-0.351,-14366
5.698,-0.351,-14366
5.699,-0.351,-14366
5.700,-0.371,-14366
5.701,-0.376,-14366
5.702,-0.390,-14366
5.703,-0.401,-14366
5.704,-0.404,-14356
5.705,-0.405,-14356
5.706,-0.409,-14356
5.707,-0.406,-14356
5.708,-0.401,-14356
5.709,-0.386,-14356
5.710,-0.371,-14356
5.711,-0.356,-14356
5.712,-0.344,-14356
5.713,-0.329,-14356
5.714,-0.311,-14347
5.715,-0.309,-14347
5.716,-0.310,-14347
5.717,-0.311,-14347
5.718,-0.329,-14347
5.719,-0.334,-14347
5.720,-0.365,-14347
5.721,-0.383,-14347
5.722,-0.385,-14340
5.723,-0.381,-14340
5.724,-0.371,-14340
5.725,-0.355,-14340
5.726,-0.336,-14340
5.727,-0.326,-14340
5.728,-0.304,-14340
5.729,-0.289,-14340
5.730,-0.274,-14340
5.731,-0.270,-14327
5.732,-0.265,-14327
5.733,-0.268,-14327
5.734,-0.269,-14327
5.735,-0.273,-14327
5.736,-0.289,-14327
5.737,-0.305,-14327
5.738,-0.321,-14327
5.739,-0.329,-14327
5.740,-0.344,-14342
5.741,-0.346,-14342
5.742,-0.344,-14342
5.743,-0.334,-14342
5.744,-0.312,-14342
5.745,-0.292,-14342
5.746,-0.282,-14342
5.747,-0.261,-14342
5.748,-0.245,-14342
5.749,-0.226,-14342
5.750,-0.219,-14316
5.751,-0.216,-14316
5.752,-0.217,-14316
5.753,-0.226,-14316
5.754,-0.244,-14316
5.755,-0.254,-14316
5.756,-0.266,-14316
5.757,-0.281,-14316
5.758,-0.286,-14316
5.759,-0.289,-14316
5.760,-0.304,-14316
5.761,-0.290,-14316
5.762,-0.271,-14316
5.763,-0.254,-14316
5.764,-0.234,-14316
5.765,-0.214,-14316
5.766,-0.204,-14316
5.767,-0.194,-14316
5.768,-0.189,-14303
5.769,-0.195,-14303
5.770,-0.206,-14303
5.771,-0.216,-14303
5.772,-0.242,-14303
5.773,-0.261,-14303
5.774,-0.275,-14303
5.775,-0.292,-14303
5.776,-0.309,-14303
5.777,-0.321,-14303
5.778,-0.324,-14301
5.779,-0.324,-14301
5.780,-0.291,-14301
5.781,-0.286,-14301
5.782,-0.268,-14301
5.783,-0.251,-14301
5.784,-0.230,-14301
5.785,-0.210,-14301
5.786,-0.201,-14301
5.787,-0.194,-14317
5.788,-0.189,-14317
5.789,-0.196,-14317
5.790,-0.203,-14317
5.791,-0.212,-14317
5.792,-0.223,-14317
5.793,-0.234,-14317
5.794,-0.249,-14317
5.795,-0.261,-14317
5.796,-0.265,-14317
5.797,-0.269,-14297
5.798,-0.270,-14297
5.799,-0.264,-14297
5.800,-0.249,-14297
5.801,-0.241,-14297
5.802,-0.230,-14297
5.803,-0.216,-14297
5.804,-0.211,-14297
5.805,-0.195,-14283
5.806,-0.196,-14283
5.807,-0.196,-14283
5.808,-0.207,-14283
5.809,-0.224,-14283
5.810,-0.245,-14283
5.811,-0.260,-14283
5.812,-0.271,-14283
5.813,-0.284,-14283
5.814,-0.295,-14283
5.815,-0.296,-14259
5.816,-0.296,-14259
5.817,-0.289,-14259
5.818,-0.275,-14259
5.819,-0.261,-14259
5.820,-0.211,-14259
5.821,-0.189,-14259
5.822,-0.172,-14259
5.823,-0.164,-14259
5.824,-0.150,-14245
5.825,-0.151,-14245
5.826,-0.151,-14245
5.827,-0.170,-14245
5.828,-0.184,-14245
5.829,-0.195,-14245
5.830,-0.209,-14245
5.831,-0.219,-14245
5.832,-0.224,-14245
5.833,-0.229,-14245
5.834,-0.231,-14247
5.835,-0.226,-14247
5.836,-0.214,-14247
5.837,-0.204,-14247
5.838,-0.188,-14247
5.839,-0.168,-14247
5.840,-0.124,-14247
5.841,-0.114,-14247
5.842,-0.113,-14247
5.843,-0.109,-14230
5.844,-0.109,-14230
5.845,-0.114,-14230
5.846,-0.116,-14230
5.847,-0.129,-14230
5.848,-0.136,-14230
5.849,-0.145,-14230
5.850,-0.151,-14230
5.851,-0.163,-14230
5.852,-0.169,-14230
5.853,-0.164,-14239
5.854,-0.161,-14239
5.855,-0.147,-14239
5.856,-0.134,-14239
5.857,-0.121,-14239
5.858,-0.104,-14239
5.859,-0.084,-14239
5.860,-0.044,-14239
5.861,-0.031,-14239
5.862,-0.024,-14242
5.863,-0.024,-14242
5.864,-0.026,-14242
5.865,-0.044,-14242
5.866,-0.054,-14242
5.867,-0.071,-14242
5.868,-0.091,-14242
5.869,-0.106,-14242
5.870,-0.122,-14242
5.871,-0.131,-14242
5.872,-0.134,-14291
5.873,-0.130,-14291
5.874,-0.126,-14291
5.875,-0.114,-14291
5.876,-0.106,-14291
5.877,-0.090,-14291
5.878,-0.072,-14291
5.879,-0.064,-14291
5.880,-0.044,-14291
5.881,-0.043,-14311
5.882,-0.039,-14311
5.883,-0.043,-14311
5.884,-0.049,-14311
5.885,-0.061,-14311
5.886,-0.070,-14311
5.887,-0.072,-14311
5.888,-0.085,-14311
5.889,-0.086,-14311
5.890,-0.086,-14369
5.891,-0.081,-14369
5.892,-0.074,-14369
5.893,-0.061,-14369
5.894,-0.049,-14369
5.895,-0.030,-14369
5.896,-0.015,-14369
5.897,-0.004,-14369
5.898,0.019,-14369
5.899,0.024,-14369
5.900,0.024,-14358
5.901,-0.007,-14358
5.902,-0.030,-14358
5.903,-0.056,-14358
5.904,-0.075,-14358
5.905,-0.106,-14358
5.906,-0.125,-14358
5.907,-0.141,-14358
5.908,-0.149,-14395
5.909,-0.163,-14395
5.910,-0.165,-14395
5.911,-0.161,-14395
5.912,-0.151,-14395
5.913,-0.144,-14395
5.914,-0.136,-14395
5.915,-0.130,-14395
5.916,-0.129,-14395
5.917,-0.126,-14395
5.918,-0.129,-14406
5.919,-0.131,-14406
5.920,-0.166,-14406
5.921,-0.184,-14406
5.922,-0.206,-14406
5.923,-0.226,-14406
5.924,-0.249,-14406
5.925,-0.268,-14406
5.926,-0.281,-14406
5.927,-0.287,-14459
5.928,-0.294,-14459
5.929,-0.296,-14459
5.930,-0.296,-14459
5.931,-0.296,-14459
5.932,-0.292,-14459
5.933,-0.286,-14459
5.934,-0.290,-14459
5.935,-0.291,-14459
5.936,-0.287,-14459
5.937,-0.289,-14427
5.938,-0.296,-14427
5.939,-0.307,-14427
5.940,-0.344,-14427
5.941,-0.367,-14427
5.942,-0.384,-14427
5.943,-0.406,-14427
5.944,-0.431,-14427
5.945,-0.448,-14427
5.946,-0.458,-14429
5.947,-0.469,-14429
5.948,-0.463,-14429
5.949,-0.455,-14429
5.950,-0.444,-14429
5.951,-0.431,-14429
5.952,-0.415,-14429
5.953,-0.394,-14429
5.954,-0.381,-14429
5.955,-0.364,-14429
5.956,-0.352,-14453
5.957,-0.349,-14453
5.958,-0.351,-14453
5.959,-0.354,-14453
5.960,-0.384,-14453
5.961,-0.403,-14453
5.962,-0.414,-14453
5.963,-0.430,-14453
5.964,-0.446,-14453
5.965,-0.450,-14436
5.966,-0.451,-14436
5.967,-0.448,-14436
5.968,-0.434,-14436
5.969,-0.421,-14436
5.970,-0.407,-14436
5.971,-0.386,-14436
5.972,-0.376,-14436
5.973,-0.361,-14436
5.974,-0.351,-14436
5.975,-0.350,-14448
5.976,-0.347,-14448
5.977,-0.354,-14448
5.978,-0.366,-14448
5.979,-0.374,-14448
5.980,-0.414,-14448
5.981,-0.430,-14448
5.982,-0.448,-14448
5.983,-0.456,-14448
5.984,-0.463,-14452
5.985,-0.465,-14452
5.986,-0.456,-14452
5.987,-0.446,-14452
5.988,-0.426,-14452
5.989,-0.406,-14452
5.990,-0.385,-14452
5.991,-0.369,-14452
5.992,-0.352,-14452
5.993,-0.341,-14452
5.994,-0.333,-14452
5.995,-0.331,-14460
5.996,-0.336,-14460
5.997,-0.344,-14460
5.998,-0.355,-14460
5.999,-0.366,-14460
6.000,-0.394,-14460
6.001,-0.406,-14460
6.002,-0.411,-14460
6.003,-0.415,-14460
6.004,-0.412,-14464
6.005,-0.401,-14464
6.006,-0.386,-14464
6.007,-0.370,-14464
6.008,-0.346,-14464
6.009,-0.334,-14464
6.010,-0.323,-14464
6.011,-0.304,-14464
