Czas(s),EKG_Surowe(mV),PPG_Surowe(ADC)
0.000,1.688,3115
0.004,1.147,3110
0.008,0.107,3110
0.012,-0.480,3110
0.016,-1.093,3110
0.020,-1.683,3110
0.024,-2.127,3110
0.028,-2.373,3110
0.032,-2.428,3110
0.036,-2.280,3110
0.040,-1.935,3099
0.044,-1.427,3099
0.048,-0.863,3099
0.052,-0.263,3099
0.056,0.372,3099
0.060,0.943,3099
0.064,1.397,3099
0.068,1.655,3099
0.072,1.718,3099
0.076,1.555,3099
0.080,0.623,3110
0.084,-0.482,3110
0.088,-1.097,3110
0.092,-1.692,3110
0.096,-2.138,3110
0.100,-2.382,3110
0.104,-2.447,3110
0.108,-2.292,3110
0.112,-1.952,3120
0.116,-1.462,3120
0.120,-0.892,3120
0.124,-0.290,3120
0.128,0.352,3120
0.132,0.932,3120
0.136,1.387,3120
0.140,1.637,3120
0.144,1.692,3120
0.148,1.518,3120
0.152,1.167,3119
0.156,0.665,3119
0.160,-0.608,3119
0.164,-1.312,3119
0.168,-1.708,3119
0.172,-2.132,3119
0.176,-2.365,3119
0.180,-2.413,3119
0.184,-2.252,3119
0.188,-1.893,3133
0.192,-1.383,3133
0.196,-0.820,3133
0.200,-0.220,3133
0.204,0.417,3133
0.208,1.008,3133
0.212,1.452,3133
0.216,1.692,3133
0.220,1.735,3133
0.224,1.558,3133
0.228,1.188,3131
0.232,0.670,3131
0.236,0.113,3131
0.240,-1.248,3131
0.244,-2.190,3131
0.248,-2.413,3131
0.252,-2.453,3131
0.256,-2.290,3131
0.260,-1.942,3138
0.264,-1.440,3138
0.268,-0.873,3138
0.272,-0.268,3138
0.276,0.367,3138
0.280,0.948,3138
0.284,1.397,3138
0.288,1.647,3138
0.292,1.698,3138
0.296,1.528,3138
0.300,1.167,3135
0.304,0.652,3135
0.308,0.092,3135
0.312,-0.532,3135
0.316,-1.165,3135
0.320,-2.220,3135
0.324,-2.420,3135
0.328,-2.425,3135
0.332,-2.260,3135
0.336,-1.900,3135
0.340,-1.393,3135
0.344,-0.828,3135
0.348,-0.230,3135
0.352,0.398,3135
0.356,0.983,3135
0.360,1.433,3135
0.364,1.667,3135
0.368,1.702,3135
0.372,1.532,3135
0.376,1.150,3145
0.380,0.635,3145
0.384,0.077,3145
0.388,-0.550,3145
0.392,-1.173,3145
0.396,-1.728,3145
0.400,-2.402,3145
0.404,-2.413,3145
0.408,-2.225,3145
0.412,-1.885,3146
0.416,-1.377,3146
0.420,-0.820,3146
0.424,-0.223,3146
0.428,0.407,3146
0.432,0.975,3146
0.436,1.397,3146
0.440,1.633,3146
0.444,1.675,3146
0.448,1.498,3146
0.452,1.137,3138
0.456,0.620,3138
0.460,0.070,3138
0.464,-0.542,3138
0.468,-1.173,3138
0.472,-1.742,3138
0.476,-2.172,3138
0.480,-2.408,3138
0.484,-2.178,3138
0.488,-1.855,3135
0.492,-0.772,3135
0.496,-0.228,3135
0.500,0.388,3135
0.504,0.955,3135
0.508,1.393,3135
0.512,1.630,3135
0.516,1.667,3135
0.520,1.498,3135
0.524,1.113,3152
0.528,0.598,3152
0.532,0.062,3152
0.536,-0.562,3152
0.540,-1.177,3152
0.544,-1.768,3152
0.548,-2.178,3152
0.552,-2.393,3152
0.556,-2.420,3152
0.560,-1.792,3136
0.564,-0.725,3136
0.568,-0.177,3136
0.572,0.460,3136
0.576,1.028,3136
0.580,1.460,3136
0.584,1.680,3136
0.588,1.712,3136
0.592,1.530,3136
0.596,1.143,3115
0.600,0.610,3115
0.604,0.050,3115
0.608,-0.573,3115
0.612,-1.202,3115
0.616,-1.778,3115
0.620,-2.188,3115
0.624,-2.408,3115
0.628,-2.428,3115
0.632,-2.230,3115
0.636,-1.867,3116
0.640,-0.710,3116
0.644,-0.145,3116
0.648,0.497,3116
0.652,1.060,3116
0.656,1.458,3116
0.660,1.688,3116
0.664,1.718,3116
0.668,1.532,3116
0.672,1.153,3127
0.676,0.627,3127
0.680,0.062,3127
0.684,-0.562,3127
0.688,-1.183,3127
0.692,-1.762,3127
0.696,-2.163,3127
0.700,-2.368,3127
0.704,-2.382,3127
0.708,-2.203,3127
0.712,-1.833,3124
0.716,-1.337,3124
0.720,-0.070,3124
0.724,0.438,3124
0.728,1.010,3124
0.732,1.420,3124
0.736,1.653,3124
0.740,1.675,3124
0.744,1.488,3124
0.748,1.097,3124
0.752,0.588,3120
0.756,0.022,3120
0.760,-0.583,3120
0.764,-1.205,3120
0.768,-1.778,3120
0.772,-2.205,3120
0.776,-2.408,3120
0.780,-2.420,3120
0.784,-2.228,3120
0.788,-1.867,3120
0.792,-1.365,3127
0.796,-0.767,3127
0.800,0.542,3127
0.804,1.050,3127
0.808,1.468,3127
0.812,1.692,3127
0.816,1.700,3127
0.820,1.528,3127
0.824,1.140,3127
0.828,0.627,3111
0.832,0.062,3111
0.836,-0.547,3111
0.840,-1.173,3111
0.844,-1.738,3111
0.848,-2.150,3111
0.852,-2.355,3111
0.856,-2.375,3111
0.860,-2.188,3111
0.864,-1.815,3111
0.868,-1.323,3118
0.872,-0.738,3118
0.876,-0.142,3118
0.880,1.137,3118
0.884,1.532,3118
0.888,1.698,3118
0.892,1.718,3118
0.896,1.512,3118
0.900,1.117,3118
0.904,0.608,3111
0.908,0.022,3111
0.912,-0.590,3111
0.916,-1.218,3111
0.920,-1.792,3111
0.924,-2.192,3111
0.928,-2.405,3111
0.932,-2.413,3111
0.936,-2.203,3111
0.940,-1.823,3111
0.944,-1.298,3115
0.948,-0.710,3115
0.952,-0.107,3115
0.956,0.515,3115
0.960,1.532,3115
0.964,1.698,3115
0.968,1.705,3115
0.972,1.498,3115
0.976,1.097,3115
0.980,0.583,3116
0.984,-0.007,3116
0.988,-0.610,3116
0.992,-1.238,3116
0.996,-1.815,3116
1.000,-2.212,3116
1.004,-2.417,3116
1.008,-2.428,3116
1.012,-2.225,3116
1.016,-1.847,3116
1.020,-1.333,3137
1.024,-0.740,3137
1.028,-0.138,3137
1.032,0.497,3137
1.036,1.058,3137
1.040,1.702,3137
1.044,1.698,3137
1.048,1.498,3137
1.052,1.100,3137
1.056,0.595,3116
1.060,0.022,3116
1.064,-0.588,3116
1.068,-1.212,3116
1.072,-1.782,3116
1.076,-2.172,3116
1.080,-2.373,3116
1.084,-2.377,3116
1.088,-2.180,3116
1.092,-1.808,3116
1.096,-1.298,3116
1.100,-0.708,3116
1.104,-0.107,3116
1.108,0.517,3116
1.112,1.067,3116
1.116,1.485,3116
1.120,1.670,3116
1.124,1.427,3116
1.128,1.077,3116
1.132,0.570,3119
1.136,-0.022,3119
1.140,-0.620,3119
1.144,-1.248,3119
1.148,-1.815,3119
1.152,-2.195,3119
1.156,-2.382,3119
1.160,-2.382,3119
1.164,-2.180,3119
1.168,-1.802,3119
1.172,-1.258,3118
1.176,-0.693,3118
1.180,-0.087,3118
1.184,0.568,3118
1.188,1.080,3118
1.192,1.492,3118
1.196,1.700,3118
1.200,1.433,3118
1.204,0.547,3142
1.208,-0.015,3142
1.212,-0.645,3142
1.216,-1.308,3142
1.220,-1.825,3142
1.224,-2.205,3142
1.228,-2.425,3142
1.232,-2.413,3142
1.236,-2.208,3142
1.240,-1.827,3142
1.244,-1.262,3126
1.248,-0.708,3126
1.252,-0.113,3126
1.256,0.517,3126
1.260,1.073,3126
1.264,1.488,3126
1.268,1.698,3126
1.272,1.695,3126
1.276,1.475,3126
1.280,0.453,3153
1.284,-0.650,3153
1.288,-1.258,3153
1.292,-1.817,3153
1.296,-2.210,3153
1.300,-2.402,3153
1.304,-2.405,3153
1.308,-2.203,3153
1.312,-1.817,3153
1.316,-1.308,3127
1.320,-0.725,3127
1.324,-0.107,3127
1.328,0.530,3127
1.332,1.077,3127
1.336,1.478,3127
1.340,1.673,3127
1.344,1.673,3127
1.348,1.452,3127
1.352,1.038,3127
1.356,0.527,3128
1.360,-0.767,3128
1.364,-1.298,3128
1.368,-1.847,3128
1.372,-2.217,3128
1.376,-2.408,3128
1.380,-2.385,3128
1.384,-2.183,3128
1.388,-1.790,3128
1.392,-1.252,3148
1.396,-0.690,3148
1.400,-0.087,3148
1.404,0.532,3148
1.408,1.075,3148
1.412,1.472,3148
1.416,1.673,3148
1.420,1.663,3148
1.424,1.452,3148
1.428,1.048,3148
1.432,0.537,3139
1.436,-0.052,3139
1.440,-1.403,3139
1.444,-1.853,3139
1.448,-2.248,3139
1.452,-2.420,3139
1.456,-2.408,3139
1.460,-2.180,3139
1.464,-1.788,3139
1.468,-1.248,3139
1.472,-0.680,3139
1.476,-0.062,3139
1.480,0.557,3139
1.484,1.117,3139
1.488,1.515,3139
1.492,1.708,3139
1.496,1.702,3139
1.500,1.465,3139
1.504,1.062,3139
1.508,0.542,3117
1.512,-0.052,3117
1.516,-0.660,3117
1.520,-1.927,3117
1.524,-2.228,3117
1.528,-2.417,3117
1.532,-2.413,3117
1.536,-2.192,3117
1.540,-1.768,3117
1.544,-1.252,3128
1.548,-0.672,3128
1.552,-0.075,3128
1.556,0.547,3128
1.560,1.095,3128
1.564,1.625,3128
1.568,1.667,3128
1.572,1.448,3128
1.576,1.048,3128
1.580,0.537,3147
1.584,-0.052,3147
1.588,-0.665,3147
1.592,-1.295,3147
1.596,-1.847,3147
1.600,-2.433,3147
1.604,-2.172,3147
1.608,-1.800,3147
1.612,-1.288,3123
1.616,-0.703,3123
1.620,-0.102,3123
1.624,0.573,3123
1.628,1.087,3123
1.632,1.482,3123
1.636,1.677,3123
1.640,1.647,3123
1.644,1.448,3123
1.648,1.008,3123
1.652,0.527,3119
1.656,-0.068,3119
1.660,-0.693,3119
1.664,-1.320,3119
1.668,-1.873,3119
1.672,-2.225,3119
1.676,-2.408,3119
1.680,-2.103,3119
1.684,-1.738,3119
1.688,-1.212,3111
1.692,-0.642,3111
1.696,-0.028,3111
1.700,0.623,3111
1.704,1.143,3111
1.708,1.528,3111
1.712,1.698,3111
1.716,1.670,3111
1.720,1.427,3111
1.724,1.022,3111
1.728,0.500,3111
1.732,-0.085,3125
1.736,-0.703,3125
1.740,-1.327,3125
1.744,-1.968,3125
1.748,-2.243,3125
1.752,-2.408,3125
1.756,-2.377,3125
1.760,-1.663,3125
1.764,-1.205,3121
1.768,0.048,3121
1.772,0.593,3121
1.776,1.165,3121
1.780,1.525,3121
1.784,1.698,3121
1.788,1.667,3121
1.792,1.425,3121
1.796,1.010,3121
1.800,0.470,3121
1.804,-0.102,3099
1.808,-0.750,3099
1.812,-1.370,3099
1.816,-1.903,3099
1.820,-2.280,3099
1.824,-2.445,3099
1.828,-2.413,3099
1.832,-2.175,3099
1.836,-1.765,3099
1.840,-0.532,3126
1.844,0.660,3126
1.848,1.192,3126
1.852,1.532,3126
1.856,1.710,3126
1.860,1.680,3126
1.864,1.435,3126
1.868,1.018,3126
1.872,0.470,3126
1.876,-0.102,3121
1.880,-0.752,3121
1.884,-1.363,3121
1.888,-1.890,3121
1.892,-2.257,3121
1.896,-2.422,3121
1.900,-2.382,3121
1.904,-2.163,3121
1.908,-1.735,3121
1.912,-1.202,3121
1.916,-0.623,3103
1.920,0.718,3103
1.924,1.145,3103
1.928,1.532,3103
1.932,1.712,3103
1.936,1.690,3103
1.940,1.452,3103
1.944,1.028,3103
1.948,0.497,3103
1.952,-0.083,3113
1.956,-0.713,3113
1.960,-1.337,3113
1.964,-1.863,3113
1.968,-2.223,3113
1.972,-2.388,3113
1.976,-2.353,3113
1.980,-2.127,3113
1.984,-1.712,3113
1.988,-1.183,3113
1.992,-0.618,3115
1.996,-0.007,3115
2.000,1.192,3115
2.004,1.488,3115
2.008,1.657,3115
2.012,1.617,3115
2.016,1.375,3115
2.020,0.938,3115
2.024,0.412,3115
2.028,-0.172,3125
2.032,-0.802,3125
2.036,-1.407,3125
2.040,-1.935,3125
2.044,-2.288,3125
2.048,-2.447,3125
2.052,-2.408,3125
2.056,-2.163,3125
2.060,-1.735,3125
2.064,-1.202,3125
2.068,-0.620,3103
2.072,0.015,3103
2.076,0.623,3103
2.080,1.573,3103
2.084,1.710,3103
2.088,1.657,3103
2.092,1.415,3103
2.096,0.988,3103
2.100,0.458,3103
2.104,-0.130,3107
2.108,-0.767,3107
2.112,-1.383,3107
2.116,-1.907,3107
2.120,-2.270,3107
2.124,-2.422,3107
2.128,-2.382,3107
2.132,-2.138,3107
2.136,-1.712,3107
2.140,-1.173,3107
2.144,-0.590,3135
2.148,0.043,3135
2.152,0.635,3135
2.156,1.173,3135
2.160,1.702,3135
2.164,1.613,3135
2.168,1.387,3135
2.172,0.958,3135
2.176,0.432,3135
2.180,-0.142,3148
2.184,-0.782,3148
2.188,-1.397,3148
2.192,-1.933,3148
2.196,-2.270,3148
2.200,-2.422,3148
2.204,-2.375,3148
2.208,-2.132,3148
2.212,-1.702,3148
2.216,-1.165,3148
2.220,-0.583,3136
2.224,0.050,3136
2.228,0.657,3136
2.232,1.173,3136
2.236,1.528,3136
2.240,1.617,3136
2.244,1.270,3136
2.248,0.948,3136
2.252,0.412,3136
2.256,-0.177,3133
2.260,-0.823,3133
2.264,-1.442,3133
2.268,-1.962,3133
2.272,-2.303,3133
2.276,-2.453,3133
2.280,-2.393,3133
2.284,-2.145,3133
2.288,-1.728,3133
2.292,-1.183,3133
2.296,-0.608,3141
2.300,0.043,3141
2.304,0.652,3141
2.308,1.192,3141
2.312,1.528,3141
2.316,1.688,3141
2.320,1.308,3141
2.324,0.927,3141
2.328,0.367,3141
2.332,-0.182,3126
2.336,-0.833,3126
2.340,-1.448,3126
2.344,-1.965,3126
2.348,-2.303,3126
2.352,-2.442,3126
2.356,-2.375,3126
2.360,-2.125,3126
2.364,-1.685,3126
2.368,-1.143,3126
2.372,-0.547,3132
2.376,0.095,3132
2.380,0.703,3132
2.384,1.230,3132
2.388,1.580,3132
2.392,1.742,3132
2.396,1.677,3132
2.400,0.887,3132
2.404,0.427,3132
2.408,-0.168,3137
2.412,-0.818,3137
2.416,-1.442,3137
2.420,-1.968,3137
2.424,-2.308,3137
2.428,-2.458,3137
2.432,-2.370,3137
2.436,-2.150,3137
2.440,-1.730,3137
2.444,-1.177,3137
2.448,-0.590,3142
2.452,0.048,3142
2.456,0.657,3142
2.460,1.188,3142
2.464,1.542,3142
2.468,1.702,3142
2.472,1.637,3142
2.476,1.377,3142
2.480,0.295,3142
2.484,-0.190,3122
2.488,-0.833,3122
2.492,-1.452,3122
2.496,-1.972,3122
2.500,-2.300,3122
2.504,-2.442,3122
2.508,-2.380,3122
2.512,-2.127,3122
2.516,-1.688,3122
2.520,-1.133,3122
2.524,-0.550,3131
2.528,0.077,3131
2.532,0.688,3131
2.536,1.208,3131
2.540,1.558,3131
2.544,1.702,3131
2.548,1.653,3131
2.552,1.383,3131
2.556,0.935,3131
2.560,-0.278,3123
2.564,-1.455,3123
2.568,-1.968,3123
2.572,-2.295,3123
2.576,-2.430,3123
2.580,-2.373,3123
2.584,-2.112,3123
2.588,-1.673,3123
2.592,-1.127,3123
2.596,-0.537,3130
2.600,0.087,3130
2.604,0.700,3130
2.608,1.215,3130
2.612,1.558,3130
2.616,1.710,3130
2.620,1.645,3130
2.624,1.373,3130
2.628,0.917,3130
2.632,0.383,3130
2.636,-0.193,3129
2.640,-1.532,3129
2.644,-1.948,3129
2.648,-2.280,3129
2.652,-2.410,3129
2.656,-2.348,3129
2.660,-2.092,3129
2.664,-1.657,3129
2.668,-1.103,3129
2.672,-0.525,3096
2.676,0.107,3096
2.680,0.713,3096
2.684,1.222,3096
2.688,1.573,3096
2.692,1.712,3096
2.696,1.633,3096
2.700,1.367,3096
2.704,0.910,3096
2.708,0.372,3096
2.712,-0.223,3096
2.716,-0.860,3127
2.720,-2.058,3127
2.724,-2.308,3127
2.728,-2.428,3127
2.732,-2.348,3127
2.736,-2.085,3127
2.740,-1.633,3127
2.744,-1.083,3127
2.748,-0.502,3127
2.752,0.130,3119
2.756,0.743,3119
2.760,1.248,3119
2.764,1.577,3119
2.768,1.712,3119
2.772,1.633,3119
2.776,1.337,3119
2.780,0.868,3119
2.784,0.318,3119
2.788,-0.282,3119
2.792,-0.912,3115
2.796,-1.542,3115
2.800,-2.377,3115
2.804,-2.467,3115
2.808,-2.380,3115
2.812,-2.112,3115
2.816,-1.663,3115
2.820,-1.100,3115
2.824,-0.515,3115
2.828,0.113,3126
2.832,0.738,3126
2.836,1.238,3126
2.840,1.583,3126
2.844,1.730,3126
2.848,1.655,3126
2.852,1.373,3126
2.856,0.915,3126
2.860,0.370,3126
2.864,-0.228,3126
2.868,-0.873,3084
2.872,-1.522,3084
2.876,-2.013,3084
2.880,-2.462,3084
2.884,-2.377,3084
2.888,-2.103,3084
2.892,-1.653,3084
2.896,-1.087,3084
2.900,-0.507,3084
2.904,0.133,3106
2.908,0.752,3106
2.912,1.255,3106
2.916,1.580,3106
2.920,1.710,3106
2.924,1.627,3106
2.928,1.337,3106
2.932,0.868,3106
2.936,0.307,3106
2.940,-0.273,3106
2.944,-0.910,3112
2.948,-1.540,3112
2.952,-2.033,3112
2.956,-2.350,3112
2.960,-2.353,3112
2.964,-2.087,3112
2.968,-1.663,3112
2.972,-1.100,3112
2.976,-0.520,3112
2.980,0.113,3111
2.984,0.738,3111
2.988,1.252,3111
2.992,1.567,3111
2.996,1.698,3111
3.000,1.617,3111
3.004,1.337,3111
3.008,0.873,3111
3.012,0.333,3111
3.016,-0.253,3111
3.020,-0.887,3108
3.024,-1.502,3108
3.028,-2.013,3108
3.032,-2.315,3108
3.036,-2.442,3108
3.040,-2.005,3108
3.044,-1.623,3108
3.048,-1.058,3108
3.052,-0.482,3108
3.056,0.152,3113
3.060,0.772,3113
3.064,1.262,3113
3.068,1.583,3113
3.072,1.702,3113
3.076,1.613,3113
3.080,1.323,3113
3.084,0.835,3113
3.088,0.312,3113
3.092,-0.273,3113
3.096,-0.907,3116
3.100,-1.528,3116
3.104,-2.018,3116
3.108,-2.333,3116
3.112,-2.445,3116
3.116,-2.348,3116
3.120,-1.520,3116
3.124,-1.052,3116
3.128,-0.460,3116
3.132,0.207,3114
3.136,0.873,3114
3.140,1.333,3114
3.144,1.577,3114
3.148,1.705,3114
3.152,1.587,3114
3.156,1.268,3114
3.160,0.858,3114
3.164,0.302,3114
3.168,-0.287,3114
3.172,-0.973,3127
3.176,-1.548,3127
3.180,-2.018,3127
3.184,-2.357,3127
3.188,-2.442,3127
3.192,-2.340,3127
3.196,-2.047,3127
3.200,-0.927,3127
3.204,-0.407,3127
3.208,0.307,3143
3.212,1.367,3143
3.216,1.613,3143
3.220,1.728,3143
3.224,1.633,3143
3.228,1.343,3143
3.232,0.873,3143
3.236,0.318,3143
3.240,-0.263,3143
3.244,-0.900,3127
3.248,-1.528,3127
3.252,-2.013,3127
3.256,-2.322,3127
3.260,-2.422,3127
3.264,-2.335,3127
3.268,-2.047,3127
3.272,-1.600,3127
3.276,-1.030,3127
3.280,0.287,3129
3.284,1.343,3129
3.288,1.617,3129
3.292,1.730,3129
3.296,1.627,3129
3.300,1.330,3129
3.304,0.860,3129
3.308,0.307,3129
3.312,-0.282,3129
3.316,-0.912,3107
3.320,-1.548,3107
3.324,-2.033,3107
3.328,-2.333,3107
3.332,-2.447,3107
3.336,-2.342,3107
3.340,-2.055,3107
3.344,-1.603,3107
3.348,-1.028,3107
3.352,-0.432,3107
3.356,0.198,3140
3.360,1.357,3140
3.364,1.617,3140
3.368,1.730,3140
3.372,1.627,3140
3.376,1.312,3140
3.380,0.848,3140
3.384,0.287,3140
3.388,-0.323,3140
3.392,-0.950,3126
3.396,-1.583,3126
3.400,-2.067,3126
3.404,-2.353,3126
3.408,-2.455,3126
3.412,-2.342,3126
3.416,-2.033,3126
3.420,-1.570,3126
3.424,-1.002,3126
3.428,-0.412,3126
3.432,0.228,3140
3.436,0.835,3140
3.440,1.655,3140
3.444,1.728,3140
3.448,1.615,3140
3.452,1.308,3140
3.456,0.833,3140
3.460,0.265,3140
3.464,-0.362,3140
3.468,-0.975,3132
3.472,-1.583,3132
3.476,-2.060,3132
3.480,-2.350,3132
3.484,-2.453,3132
3.488,-2.322,3132
3.492,-2.025,3132
3.496,-1.552,3132
3.500,-0.988,3132
3.504,-0.383,3132
3.508,0.253,3128
3.512,0.868,3128
3.516,1.350,3128
3.520,1.738,3128
3.524,1.575,3128
3.528,1.308,3128
3.532,0.835,3128
3.536,0.273,3128
3.540,-0.323,3128
3.544,-0.963,3146
3.548,-1.580,3146
3.552,-2.083,3146
3.556,-2.368,3146
3.560,-2.473,3146
3.564,-2.373,3146
3.568,-2.083,3146
3.572,-1.617,3146
3.576,-1.048,3146
3.580,-0.443,3146
3.584,0.190,3124
3.588,0.787,3124
3.592,1.292,3124
3.596,1.585,3124
3.600,1.542,3124
3.604,1.262,3124
3.608,0.792,3124
3.612,0.253,3124
3.616,-0.340,3124
3.620,-0.973,3104
3.624,-1.603,3104
3.628,-2.060,3104
3.632,-2.350,3104
3.636,-2.450,3104
3.640,-2.333,3104
3.644,-1.952,3104
3.648,-1.528,3104
3.652,-0.963,3104
3.656,-0.352,3104
3.660,0.270,3123
3.664,0.890,3123
3.668,1.312,3123
3.672,1.637,3123
3.676,1.702,3123
3.680,1.177,3123
3.684,0.757,3123
3.688,0.207,3123
3.692,-0.390,3123
3.696,-1.010,3126
3.700,-1.620,3126
3.704,-2.083,3126
3.708,-2.353,3126
3.712,-2.433,3126
3.716,-2.310,3126
3.720,-2.002,3126
3.724,-1.522,3126
3.728,-0.950,3126
3.732,-0.362,3126
3.736,0.268,3126
3.740,0.863,3127
3.744,1.353,3127
3.748,1.635,3127
3.752,1.718,3127
3.756,1.587,3127
3.760,0.688,3127
3.764,0.223,3127
3.768,-0.378,3127
3.772,-1.012,3127
3.776,-1.617,3118
3.780,-2.098,3118
3.784,-2.368,3118
3.788,-2.458,3118
3.792,-2.337,3118
3.796,-2.022,3118
3.800,-1.550,3118
3.804,-1.005,3118
3.808,-0.412,3118
3.812,0.217,3118
3.816,0.812,3124
3.820,1.298,3124
3.824,1.558,3124
3.828,1.663,3124
3.832,1.538,3124
3.836,1.210,3124
3.840,0.080,3124
3.844,-0.535,3124
3.848,-1.067,3124
3.852,-1.643,3104
3.856,-2.135,3104
3.860,-2.373,3104
3.864,-2.450,3104
3.868,-2.322,3104
3.872,-1.995,3104
3.876,-1.525,3104
3.880,-0.943,3104
3.884,-0.360,3104
3.888,0.270,3104
3.892,0.863,3129
3.896,1.347,3129
3.900,1.627,3129
3.904,1.708,3129
3.908,1.573,3129
3.912,1.228,3129
3.916,0.745,3129
3.920,-0.510,3129
3.924,-1.048,3129
3.928,-1.635,3125
3.932,-2.103,3125
3.936,-2.365,3125
3.940,-2.445,3125
3.944,-2.308,3125
3.948,-1.988,3125
3.952,-1.508,3125
3.956,-0.938,3125
3.960,-0.347,3125
3.964,0.278,3125
3.968,0.865,3106
3.972,1.337,3106
3.976,1.617,3106
3.980,1.688,3106
3.984,1.548,3106
3.988,1.215,3106
3.992,0.743,3106
3.996,0.188,3106
4.000,-1.147,3106
4.004,-1.653,3123
4.008,-2.123,3123
4.012,-2.380,3123
4.016,-2.462,3123
4.020,-2.337,3123
4.024,-2.013,3123
4.028,-1.532,3123
4.032,-0.973,3123
4.036,-0.378,3123
4.040,0.258,3123
4.044,0.853,3121
4.048,1.337,3121
4.052,1.597,3121
4.056,1.698,3121
4.060,1.567,3121
4.064,1.228,3121
4.068,0.757,3121
4.072,0.207,3121
4.076,-0.405,3121
4.080,-1.768,3124
4.084,-2.373,3124
4.088,-2.433,3124
4.092,-2.308,3124
4.096,-1.992,3124
4.100,-1.502,3124
4.104,-0.943,3124
4.108,-0.352,3124
4.112,0.278,3124
4.116,0.870,3129
4.120,1.357,3129
4.124,1.633,3129
4.128,1.712,3129
4.132,1.583,3129
4.136,1.250,3129
4.140,0.770,3129
4.144,0.220,3129
4.148,-0.372,3129
4.152,-1.002,3129
4.156,-1.603,3128
4.160,-2.348,3128
4.164,-2.388,3128
4.168,-2.263,3128
4.172,-1.923,3128
4.176,-1.472,3128
4.180,-0.912,3128
4.184,-0.307,3128
4.188,0.307,3128
4.192,0.902,3128
4.196,1.380,3128
4.200,1.647,3128
4.204,1.720,3128
4.208,1.570,3128
4.212,1.228,3128
4.216,0.748,3128
4.220,0.190,3128
4.224,-0.417,3128
4.228,-1.048,3128
4.232,-1.647,3136
4.236,-2.100,3136
4.240,-2.408,3136
4.244,-2.272,3136
4.248,-1.948,3136
4.252,-1.468,3136
4.256,-0.897,3136
4.260,-0.302,3136
4.264,0.338,3136
4.268,0.910,3134
4.272,1.383,3134
4.276,1.655,3134
4.280,1.715,3134
4.284,1.567,3134
4.288,1.218,3134
4.292,0.735,3134
4.296,0.170,3134
4.300,-0.448,3134
4.304,-1.090,3134
4.308,-1.692,3143
4.312,-2.145,3143
4.316,-2.390,3143
4.320,-2.272,3143
4.324,-1.870,3143
4.328,-1.498,3143
4.332,-0.927,3143
4.336,-0.328,3143
4.340,0.310,3143
4.344,0.925,3133
4.348,1.393,3133
4.352,1.667,3133
4.356,1.742,3133
4.360,1.583,3133
4.364,1.238,3133
4.368,0.750,3133
4.372,0.195,3133
4.376,-0.412,3133
4.380,-1.055,3133
4.384,-1.643,3138
4.388,-2.105,3138
4.392,-2.362,3138
4.396,-2.417,3138
4.400,-1.883,3138
4.404,-1.470,3138
4.408,-0.902,3138
4.412,-0.305,3138
4.416,0.315,3138
4.420,0.907,3133
4.424,1.383,3133
4.428,1.637,3133
4.432,1.708,3133
4.436,1.558,3133
4.440,1.220,3133
4.444,0.735,3133
4.448,0.188,3133
4.452,-0.412,3133
4.456,-1.052,3133
4.460,-1.650,3133
4.464,-2.123,3133
4.468,-2.368,3133
4.472,-2.433,3133
4.476,-2.288,3133
4.480,-1.387,3133
4.484,-0.912,3133
4.488,-0.323,3133
4.492,0.312,3133
4.496,0.907,3130
4.500,1.360,3130
4.504,1.623,3130
4.508,1.690,3130
4.512,1.542,3130
4.516,1.188,3130
4.520,0.713,3130
4.524,0.147,3130
4.528,-0.445,3130
4.532,-1.067,3130
4.536,-1.653,3123
4.540,-2.105,3123
4.544,-2.342,3123
4.548,-2.408,3123
4.552,-2.250,3123
4.556,-1.903,3123
4.560,-0.765,3123
4.564,-0.122,3123
4.568,0.465,3123
4.572,0.985,3117
4.576,1.395,3117
4.580,1.653,3117
4.584,1.712,3117
4.588,1.542,3117
4.592,1.188,3117
4.596,0.700,3117
4.600,0.150,3117
4.604,-0.453,3117
4.608,-1.083,3117
4.612,-1.663,3136
4.616,-2.123,3136
4.620,-2.370,3136
4.624,-2.428,3136
4.628,-2.272,3136
4.632,-1.935,3136
4.636,-1.405,3136
4.640,-0.182,3136
4.644,0.352,3136
4.648,0.938,3127
4.652,1.397,3127
4.656,1.653,3127
4.660,1.708,3127
4.664,1.552,3127
4.668,1.195,3127
4.672,0.708,3127
4.676,0.147,3127
4.680,-0.458,3127
4.684,-1.087,3127
4.688,-1.673,3130
4.692,-2.132,3130
4.696,-2.368,3130
4.700,-2.422,3130
4.704,-2.270,3130
4.708,-1.927,3130
4.712,-1.442,3130
4.716,-0.863,3130
4.720,0.463,3130
4.724,1.052,3100
4.728,1.663,3100
4.732,1.718,3100
4.736,1.558,3100
4.740,1.210,3100
4.744,0.718,3100
4.748,0.152,3100
4.752,-0.458,3100
4.756,-1.090,3100
4.760,-1.683,3100
4.764,-2.123,3135
4.768,-2.365,3135
4.772,-2.413,3135
4.776,-2.252,3135
4.780,-1.893,3135
4.784,-1.395,3135
4.788,-0.828,3135
4.792,-0.228,3135
4.796,0.407,3135
4.800,1.485,3112
4.804,1.718,3112
4.808,1.550,3112
4.812,1.188,3112
4.816,0.685,3112
4.820,0.115,3112
4.824,-0.510,3112
4.828,-1.133,3112
4.832,-1.728,3112
4.836,-2.167,3124
4.840,-2.410,3124
4.844,-2.442,3124
4.848,-2.268,3124
4.852,-1.925,3124
4.856,-1.417,3124
4.860,-0.853,3124
4.864,-0.247,3124
4.868,0.380,3124
4.872,0.948,3124
4.876,1.393,3109
4.880,1.677,3109
4.884,1.528,3109
4.888,1.157,3109
4.892,0.665,3109
4.896,0.105,3109
4.900,-0.507,3109
4.904,-1.133,3109
4.908,-1.708,3109
4.912,-2.143,3112
4.916,-2.373,3112
4.920,-2.413,3112
4.924,-2.252,3112
4.928,-1.897,3112
4.932,-1.407,3112
4.936,-0.843,3112
4.940,-0.230,3112
4.944,0.395,3112
4.948,0.980,3112
4.952,1.413,3122
4.956,1.655,3122
4.960,1.468,3122
4.964,1.157,3122
4.968,0.657,3122
4.972,0.098,3122
4.976,-0.525,3122
4.980,-1.153,3122
4.984,-1.738,3122
4.988,-2.170,3073
4.992,-2.405,3073
4.996,-2.433,3073
5.000,-2.265,3073
5.004,-1.900,3073
5.008,-1.393,3073
5.012,-0.825,3073
5.016,-0.182,3073
5.020,0.398,3073
5.024,0.978,3073
5.028,1.413,3109
5.032,1.647,3109
5.036,1.692,3109
5.040,1.058,3109
5.044,0.627,3109
5.048,0.060,3109
5.052,-0.562,3109
5.056,-1.185,3109
5.060,-1.778,3109
5.064,-2.203,3122
5.068,-2.430,3122
5.072,-2.458,3122
5.076,-2.283,3122
5.080,-1.913,3122
5.084,-1.415,3122
5.088,-0.843,3122
5.092,-0.242,3122
5.096,0.388,3122
5.100,0.950,3122
5.104,1.400,3118
5.108,1.643,3118
5.112,1.673,3118
5.116,1.498,3118
5.120,0.510,3118
5.124,-0.010,3118
5.128,-0.613,3118
5.132,-1.202,3118
5.136,-1.780,3118
5.140,-2.203,3122
5.144,-2.425,3122
5.148,-2.450,3122
5.152,-2.270,3122
5.156,-1.903,3122
5.160,-1.395,3122
5.164,-0.828,3122
5.168,-0.217,3122
5.172,0.412,3122
5.176,0.990,3122
5.180,1.417,3131
5.184,1.653,3131
5.188,1.698,3131
5.192,1.508,3131
5.196,1.140,3131
5.200,-0.028,3131
5.204,-0.537,3131
5.208,-1.177,3131
5.212,-1.765,3131
5.216,-2.183,3139
5.220,-2.408,3139
5.224,-2.440,3139
5.228,-2.265,3139
5.232,-1.897,3139
5.236,-1.387,3139
5.240,-0.812,3139
5.244,-0.212,3139
5.248,0.422,3139
5.252,0.993,3139
5.256,1.425,3142
5.260,1.663,3142
5.264,1.698,3142
5.268,1.508,3142
5.272,1.133,3142
5.276,0.613,3142
5.280,-0.688,3142
5.284,-1.210,3142
5.288,-1.792,3142
5.292,-2.203,3145
5.296,-2.420,3145
5.300,-2.428,3145
5.304,-2.248,3145
5.308,-1.870,3145
5.312,-1.367,3145
5.316,-0.780,3145
5.320,-0.177,3145
5.324,0.455,3145
5.328,1.020,3145
5.332,1.438,3135
5.336,1.667,3135
5.340,1.692,3135
5.344,1.502,3135
5.348,1.117,3135
5.352,0.613,3135
5.356,0.052,3135
5.360,-1.323,3135
5.364,-1.792,3135
5.368,-2.208,3149
5.372,-2.428,3149
5.376,-2.453,3149
5.380,-2.265,3149
5.384,-1.890,3149
5.388,-1.377,3149
5.392,-0.805,3149
5.396,-0.200,3149
5.400,0.432,3149
5.404,1.048,3149
5.408,1.452,3146
5.412,1.667,3146
5.416,1.698,3146
5.420,1.508,3146
5.424,1.117,3146
5.428,0.595,3146
5.432,0.062,3146
5.436,-0.568,3146
5.440,-1.853,3146
5.444,-2.178,3121
5.448,-2.408,3121
5.452,-2.422,3121
5.456,-2.228,3121
5.460,-1.857,3121
5.464,-1.353,3121
5.468,-0.767,3121
5.472,-0.150,3121
5.476,0.472,3121
5.480,1.050,3121
5.484,1.478,3129
5.488,1.692,3129
5.492,1.712,3129
5.496,1.512,3129
5.500,1.117,3129
5.504,0.608,3129
5.508,0.048,3129
5.512,-0.583,3129
5.516,-1.215,3129
5.520,-2.248,3125
5.524,-2.428,3125
5.528,-2.248,3125
5.532,-1.873,3125
5.536,-1.373,3125
5.540,-0.805,3125
5.544,-0.182,3125
5.548,0.453,3125
5.552,1.032,3125
5.556,1.452,3141
5.560,1.667,3141
5.564,1.677,3141
5.568,1.488,3141
5.572,1.093,3141
5.576,0.580,3141
5.580,0.022,3141
5.584,-0.595,3141
5.588,-1.222,3141
5.592,-1.792,3141
5.596,-2.197,3121
5.600,-2.413,3121
5.604,-2.248,3121
5.608,-1.860,3121
5.612,-1.353,3121
5.616,-0.772,3121
5.620,-0.163,3121
5.624,0.463,3121
5.628,1.032,3121
5.632,1.458,3124
5.636,1.667,3124
5.640,1.692,3124
5.644,1.492,3124
5.648,1.100,3124
5.652,0.583,3124
5.656,0.018,3124
5.660,-0.613,3124
5.664,-1.232,3124
5.668,-1.812,3124
5.672,-2.203,3115
5.676,-2.413,3115
5.680,-2.167,3115
5.684,-1.742,3115
5.688,-1.310,3115
5.692,-0.752,3115
5.696,-0.138,3115
5.700,0.497,3115
5.704,1.058,3115
5.708,1.468,3115
5.712,1.673,3124
5.716,1.677,3124
5.720,1.475,3124
5.724,1.073,3124
5.728,0.568,3124
5.732,-0.013,3124
5.736,-0.613,3124
5.740,-1.245,3124
5.744,-1.805,3124
5.748,-2.205,3124
5.752,-2.413,3129
5.756,-2.417,3129
5.760,-1.772,3129
5.764,-1.345,3129
5.768,-0.770,3129
5.772,-0.170,3129
5.776,0.463,3129
5.780,1.028,3129
5.784,1.438,3129
5.788,1.653,3107
5.792,1.663,3107
5.796,1.465,3107
5.800,1.073,3107
5.804,0.568,3107
5.808,-0.007,3107
5.812,-0.613,3107
5.816,-1.353,3107
5.820,-1.802,3107
5.824,-2.188,3107
5.828,-2.390,3120
5.832,-2.382,3120
5.836,-2.183,3120
5.840,-1.173,3120
5.844,-0.578,3120
5.848,-0.045,3120
5.852,0.545,3120
5.856,1.103,3120
5.860,1.512,3120
5.864,1.718,3094
5.868,1.715,3094
5.872,1.505,3094
5.876,1.103,3094
5.880,0.583,3094
5.884,-0.005,3094
5.888,-0.623,3094
5.892,-1.262,3094
5.896,-1.840,3094
5.900,-2.243,3094
5.904,-2.430,3114
5.908,-2.435,3114
5.912,-2.228,3114
5.916,-1.843,3114
5.920,-0.660,3114
5.924,0.018,3114
5.928,0.532,3114
5.932,1.058,3114
5.936,1.465,3114
5.940,1.667,3105
5.944,1.670,3105
5.948,1.452,3105
5.952,1.055,3105
5.956,0.537,3105
5.960,-0.043,3105
5.964,-0.660,3105
5.968,-1.298,3105
5.972,-1.853,3105
5.976,-2.243,3105
5.980,-2.428,3116
5.984,-2.428,3116
5.988,-2.217,3116
5.992,-1.827,3116
5.996,-1.302,3116
6.000,0.020,3116
6.004,0.540,3116
6.008,1.093,3116
6.012,1.498,3116
6.016,1.698,3125
6.020,1.700,3125
6.024,1.482,3125
6.028,1.073,3125
6.032,0.542,3125
6.036,-0.028,3125
6.040,-0.657,3125
6.044,-1.290,3125
6.048,-1.843,3125
6.052,-2.228,3125
6.056,-2.415,3113
6.060,-2.413,3113
6.064,-2.192,3113
6.068,-1.810,3113
6.072,-1.288,3113
6.076,-0.703,3113
6.080,0.632,3113
6.084,1.087,3113
6.088,1.475,3113
6.092,1.670,3110
6.096,1.670,3110
6.100,1.450,3110
6.104,1.038,3110
6.108,0.517,3110
6.112,-0.062,3110
6.116,-0.690,3110
6.120,-1.323,3110
6.124,-1.867,3110
6.128,-2.257,3110
6.132,-2.447,3138
6.136,-2.442,3138
6.140,-2.225,3138
6.144,-1.827,3138
6.148,-1.308,3138
6.152,-0.715,3138
6.156,-0.098,3138
6.160,1.167,3138
6.164,1.488,3138
6.168,1.677,3122
6.172,1.673,3122
6.176,1.440,3122
6.180,0.998,3122
6.184,0.507,3122
6.188,-0.062,3122
6.192,-0.688,3122
6.196,-1.323,3122
6.200,-1.867,3122
6.204,-2.260,3122
6.208,-2.433,3103
6.212,-2.417,3103
6.216,-2.130,3103
6.220,-1.808,3103
6.224,-1.292,3103
6.228,-0.703,3103
6.232,-0.085,3103
6.236,0.547,3103
6.240,1.542,3103
6.244,1.690,3131
6.248,1.677,3131
6.252,1.460,3131
6.256,1.048,3131
6.260,0.525,3131
6.264,-0.062,3131
6.268,-0.688,3131
6.272,-1.310,3131
6.276,-1.853,3131
6.280,-2.230,3131
6.284,-2.410,3121
6.288,-2.390,3121
6.292,-2.178,3121
6.296,-1.780,3121
6.300,-1.242,3121
6.304,-0.667,3121
6.308,-0.055,3121
6.312,0.565,3121
6.316,1.103,3121
6.320,1.702,3129
6.324,1.438,3129
6.328,1.022,3129
6.332,0.500,3129
6.336,-0.068,3129
6.340,-0.698,3129
6.344,-1.323,3129
6.348,-1.863,3129
6.352,-2.243,3129
6.356,-2.413,3121
6.360,-2.402,3121
6.364,-2.183,3121
6.368,-1.780,3121
6.372,-1.238,3121
6.376,-0.667,3121
6.380,-0.052,3121
6.384,0.578,3121
6.388,1.137,3121
6.392,1.518,3121
6.396,1.712,3136
6.400,1.308,3136
6.404,0.453,3136
6.408,-0.168,3136
6.412,-0.748,3136
6.416,-1.337,3136
6.420,-1.873,3136
6.424,-2.252,3136
6.428,-2.417,3145
6.432,-2.385,3145
6.436,-2.167,3145
6.440,-1.768,3145
6.444,-1.222,3145
6.448,-0.647,3145
6.452,-0.028,3145
6.456,0.593,3145
6.460,1.147,3145
6.464,1.532,3145
6.468,1.702,3136
6.472,1.663,3136
6.476,1.410,3136
6.480,0.357,3136
6.484,-0.858,3136
6.488,-1.410,3136
6.492,-1.903,3136
6.496,-2.260,3136
6.500,-2.417,3134
6.504,-2.382,3134
6.508,-2.143,3134
6.512,-1.732,3134
6.516,-1.202,3134
6.520,-0.613,3134
6.524,-0.007,3134
6.528,0.623,3134
6.532,1.157,3134
6.536,1.548,3134
6.540,1.728,3125
6.544,1.698,3125
6.548,1.455,3125
6.552,1.032,3125
6.556,0.517,3125
6.560,-0.802,3125
6.564,-1.323,3125
6.568,-1.865,3125
6.572,-2.228,3125
6.576,-2.413,3131
6.580,-2.382,3131
6.584,-2.138,3131
6.588,-1.742,3131
6.592,-1.208,3131
6.596,-0.642,3131
6.600,-0.015,3131
6.604,0.613,3131
6.608,1.147,3131
6.612,1.532,3131
6.616,1.702,3119
6.620,1.667,3119
6.624,1.423,3119
6.628,1.008,3119
6.632,0.472,3119
6.636,-0.102,3119
6.640,-1.452,3119
6.644,-1.885,3119
6.648,-2.248,3119
6.652,-2.413,3117
6.656,-2.377,3117
6.660,-2.143,3117
6.664,-1.732,3117
6.668,-1.202,3117
6.672,-0.623,3117
6.676,-0.013,3117
6.680,0.618,3117
6.684,1.157,3117
6.688,1.538,3117
6.692,1.712,3117
6.696,1.667,3115
6.700,1.417,3115
6.704,0.998,3115
6.708,0.463,3115
6.712,-0.113,3115
6.716,-0.738,3115
6.720,-1.978,3115
6.724,-2.425,3111
6.728,-2.382,3111
6.732,-2.160,3111
6.736,-1.742,3111
6.740,-1.208,3111
6.744,-0.625,3111
6.748,-0.022,3111
6.752,0.598,3111
6.756,1.137,3111
6.760,1.508,3111
6.764,1.677,3111
6.768,1.647,3128
6.772,1.385,3128
6.776,0.958,3128
6.780,0.432,3128
6.784,-0.140,3128
6.788,-0.767,3128
6.792,-1.385,3128
6.796,-1.923,3128
6.800,-2.433,3107
6.804,-2.143,3107
6.808,-1.722,3107
6.812,-1.190,3107
6.816,-0.608,3107
6.820,0.022,3107
6.824,0.623,3107
6.828,1.167,3107
6.832,1.540,3107
6.836,1.710,3107
6.840,1.667,3132
6.844,1.407,3132
6.848,0.983,3132
6.852,0.440,3132
6.856,-0.133,3132
6.860,-0.762,3132
6.864,-1.377,3132
6.868,-1.907,3132
6.872,-2.265,3132
6.876,-2.422,3132
6.880,-2.103,3117
6.884,-1.202,3117
6.888,-0.645,3117
6.892,-0.028,3117
6.896,0.588,3117
6.900,1.113,3117
6.904,1.478,3117
6.908,1.647,3117
6.912,1.590,3109
6.916,1.335,3109
6.920,0.910,3109
6.924,0.388,3109
6.928,-0.182,3109
6.932,-0.802,3109
6.936,-1.417,3109
6.940,-1.968,3109
6.944,-2.283,3109
6.948,-2.433,3109
6.952,-2.380,3101
6.956,-2.132,3101
6.960,-1.093,3101
6.964,-0.497,3101
6.968,0.068,3101
6.972,0.625,3101
6.976,1.167,3101
6.980,1.515,3101
6.984,1.677,3101
6.988,1.627,3106
6.992,1.367,3106
6.996,0.938,3106
7.000,0.417,3106
7.004,-0.170,3106
7.008,-0.777,3106
7.012,-1.407,3106
7.016,-1.938,3106
7.020,-2.288,3106
7.024,-2.447,3106
7.028,-2.402,3123
7.032,-2.167,3123
7.036,-1.738,3123
7.040,-0.507,3123
7.044,0.022,3123
7.048,0.632,3123
7.052,1.177,3123
7.056,1.538,3123
7.060,1.698,3123
7.064,1.647,3107
7.068,1.377,3107
7.072,0.943,3107
7.076,0.417,3107
7.080,-0.172,3107
7.084,-0.787,3107
7.088,-1.407,3107
7.092,-1.933,3107
7.096,-2.268,3107
7.100,-2.422,3107
7.104,-2.368,3120
7.108,-2.123,3120
7.112,-1.690,3120
7.116,-1.145,3120
7.120,0.152,3120
7.124,0.728,3120
7.128,1.228,3120
7.132,1.552,3120
7.136,1.712,3120
7.140,1.663,3121
7.144,1.387,3121
7.148,0.945,3121
7.152,0.425,3121
7.156,-0.140,3121
7.160,-0.762,3121
7.164,-1.383,3121
7.168,-1.903,3121
7.172,-2.250,3121
7.176,-2.405,3121
7.180,-2.353,3134
7.184,-2.105,3134
7.188,-1.675,3134
7.192,-1.145,3134
7.196,-0.568,3134
7.200,0.757,3134
7.204,1.302,3134
7.208,1.538,3134
7.212,1.677,3134
7.216,1.623,3132
7.220,1.357,3132
7.224,0.912,3132
7.228,0.380,3132
7.232,-0.203,3132
7.236,-0.828,3132
7.240,-1.450,3132
7.244,-1.972,3132
7.248,-2.310,3132
7.252,-2.458,3132
7.256,-2.405,3126
7.260,-2.138,3126
7.264,-1.705,3126
7.268,-1.163,3126
7.272,-0.575,3126
7.276,0.058,3126
7.280,1.262,3126
7.284,1.542,3126
7.288,1.688,3126
7.292,1.627,3148
7.296,1.347,3148
7.300,0.902,3148
7.304,0.367,3148
7.308,-0.223,3148
7.312,-0.863,3148
7.316,-1.470,3148
7.320,-1.988,3148
7.324,-2.315,3148
7.328,-2.460,3148
7.332,-2.388,3142
7.336,-2.138,3142
7.340,-1.702,3142
7.344,-1.163,3142
7.348,-0.578,3142
7.352,0.058,3142
7.356,0.670,3142
7.360,1.583,3142
7.364,1.700,3142
7.368,1.637,3144
7.372,1.357,3144
7.376,0.915,3144
7.380,0.378,3144
7.384,-0.203,3144
7.388,-0.833,3144
7.392,-1.450,3144
7.396,-1.968,3144
7.400,-2.297,3144
7.404,-2.442,3144
7.408,-2.370,3131
7.412,-2.103,3131
7.416,-1.675,3131
7.420,-1.127,3131
7.424,-0.540,3131
7.428,0.092,3131
7.432,0.698,3131
7.436,1.212,3131
7.440,1.708,3131
7.444,1.573,3125
7.448,0.868,3125
7.452,0.367,3125
7.456,-0.220,3125
7.460,-0.853,3125
7.464,-1.470,3125
7.468,-1.982,3125
7.472,-2.310,3125
7.476,-2.445,3125
7.480,-2.368,3117
7.484,-2.103,3117
7.488,-1.667,3117
7.492,-1.127,3117
7.496,-0.535,3117
7.500,0.098,3117
7.504,0.708,3117
7.508,1.220,3117
7.512,1.558,3117
7.516,1.710,3117
7.520,1.275,3125
7.524,0.350,3125
7.528,-0.242,3125
7.532,-0.868,3125
7.536,-1.492,3125
7.540,-2.013,3125
7.544,-2.337,3125
7.548,-2.458,3125
7.552,-2.382,3116
7.556,-2.123,3116
7.560,-1.685,3116
7.564,-1.135,3116
7.568,-0.547,3116
7.572,0.077,3116
7.576,0.688,3116
7.580,1.190,3116
7.584,1.528,3116
7.588,1.667,3116
7.592,1.593,3126
7.596,1.325,3126
7.600,0.237,3126
7.604,-0.250,3126
7.608,-0.882,3126
7.612,-1.488,3126
7.616,-1.982,3126
7.620,-2.308,3126
7.624,-2.425,3126
7.628,-2.350,3134
7.632,-2.083,3134
7.636,-1.653,3134
7.640,-1.100,3134
7.644,-0.522,3134
7.648,0.102,3134
7.652,0.720,3134
7.656,1.230,3134
7.660,1.573,3134
7.664,1.712,3134
7.668,1.647,3136
7.672,1.355,3136
7.676,0.907,3136
7.680,-0.328,3136
7.684,-0.858,3136
7.688,-1.480,3136
7.692,-1.980,3136
7.696,-2.300,3136
7.700,-2.422,3136
7.704,-2.348,3136
7.708,-2.087,3121
7.712,-1.607,3121
7.716,-1.083,3121
7.720,-0.502,3121
7.724,0.125,3121
7.728,0.735,3121
7.732,1.238,3121
7.736,1.573,3121
7.740,1.708,3121
7.744,1.623,3121
7.748,1.337,3113
7.752,0.865,3113
7.756,0.318,3113
7.760,-1.002,3113
7.764,-1.512,3113
7.768,-2.020,3113
7.772,-2.340,3113
7.776,-2.470,3113
7.780,-2.402,3113
7.784,-2.123,3124
7.788,-1.663,3124
7.792,-1.125,3124
7.796,-0.537,3124
7.800,0.092,3124
7.804,0.705,3124
7.808,1.210,3124
7.812,1.542,3124
7.816,1.677,3124
7.820,1.593,3124
7.824,1.317,3119
7.828,0.853,3119
7.832,0.318,3119
7.836,-0.253,3119
7.840,-1.570,3119
7.844,-1.982,3119
7.848,-2.297,3119
7.852,-2.415,3119
7.856,-2.337,3119
7.860,-2.058,3086
7.864,-1.607,3086
7.868,-1.060,3086
7.872,-0.487,3086
7.876,0.135,3086
7.880,0.738,3086
7.884,1.235,3086
7.888,1.555,3086
7.892,1.690,3086
7.896,1.587,3086
7.900,1.308,3117
7.904,0.828,3117
7.908,0.290,3117
7.912,-0.297,3117
7.916,-0.927,3117
7.920,-2.103,3117
7.924,-2.353,3117
7.928,-2.467,3117
7.932,-2.380,3117
7.936,-2.098,3114
7.940,-1.647,3114
7.944,-1.103,3114
7.948,-0.522,3114
7.952,0.113,3114
7.956,0.728,3114
7.960,1.225,3114
7.964,1.567,3114
7.968,1.692,3114
7.972,1.615,3114
7.976,1.327,3119
7.980,0.858,3119
7.984,0.318,3119
7.988,-0.268,3119
7.992,-0.902,3119
7.996,-1.512,3119
8.000,-2.340,3119
8.004,-2.428,3119
8.008,-2.342,3119
8.012,-2.058,3114
8.016,-1.605,3114
8.020,-1.060,3114
8.024,-0.487,3114
8.028,0.140,3114
8.032,0.748,3114
8.036,1.250,3114
8.040,1.575,3114
8.044,1.702,3114
8.048,1.613,3114
8.052,1.327,3112
8.056,0.858,3112
8.060,0.312,3112
8.064,-0.258,3112
8.068,-0.892,3112
8.072,-1.498,3112
8.076,-1.990,3112
8.080,-2.413,3112
8.084,-2.312,3112
8.088,-2.033,3117
8.092,-1.573,3117
8.096,-1.030,3117
8.100,-0.410,3117
8.104,0.182,3117
8.108,0.780,3117
8.112,1.270,3117
8.116,1.585,3117
8.120,1.700,3117
8.124,1.590,3117
8.128,1.302,3138
8.132,0.823,3138
8.136,0.285,3138
8.140,-0.292,3138
8.144,-0.917,3138
8.148,-1.525,3138
8.152,-2.007,3138
8.156,-2.300,3138
8.160,-2.283,3138
8.164,-2.022,3108
8.168,-1.562,3108
8.172,-1.022,3108
8.176,-0.432,3108
8.180,0.188,3108
8.184,0.785,3108
8.188,1.272,3108
8.192,1.590,3108
8.196,1.702,3108
8.200,1.597,3108
8.204,1.302,3106
8.208,0.830,3106
8.212,0.287,3106
8.216,-0.302,3106
8.220,-0.940,3106
8.224,-1.545,3106
8.228,-2.025,3106
8.232,-2.328,3106
8.236,-2.428,3106
8.240,-1.972,3139
8.244,-1.018,3139
8.248,-0.445,3139
8.252,0.188,3139
8.256,0.782,3139
8.260,1.278,3139
8.264,1.593,3139
8.268,1.728,3139
8.272,1.627,3139
8.276,1.327,3134
8.280,0.853,3134
8.284,0.300,3134
8.288,-0.292,3134
8.292,-0.930,3134
8.296,-1.542,3134
8.300,-2.033,3134
8.304,-2.337,3134
8.308,-2.447,3134
8.312,-2.348,3134
8.316,-2.053,3147
8.320,-0.938,3147
8.324,-0.407,3147
8.328,0.250,3147
8.332,0.892,3147
8.336,1.308,3147
8.340,1.593,3147
8.344,1.698,3147
8.348,1.590,3147
8.352,1.302,3136
8.356,0.830,3136
8.360,0.278,3136
8.364,-0.300,3136
8.368,-0.943,3136
8.372,-1.562,3136
8.376,-2.055,3136
8.380,-2.348,3136
8.384,-2.453,3136
8.388,-2.348,3136
8.392,-2.053,3135
8.396,-1.583,3135
8.400,-0.328,3135
8.404,0.292,3135
8.408,0.993,3135
8.412,1.333,3135
8.416,1.615,3135
8.420,1.708,3135
8.424,1.587,3135
8.428,1.298,3132
8.432,0.787,3132
8.436,0.265,3132
8.440,-0.320,3132
8.444,-0.943,3132
8.448,-1.552,3132
8.452,-2.033,3132
8.456,-2.328,3132
8.460,-2.433,3132
8.464,-2.328,3132
8.468,-2.020,3144
8.472,-1.552,3144
8.476,-1.008,3144
8.480,0.312,3144
8.484,0.825,3144
8.488,1.337,3144
8.492,1.617,3144
8.496,1.728,3144
8.500,1.623,3144
8.504,1.317,3144
8.508,0.823,3144
8.512,0.265,3144
8.516,-0.323,3144
8.520,-0.948,3144
8.524,-1.565,3144
8.528,-2.047,3144
8.532,-2.333,3144
8.536,-2.440,3144
8.540,-2.328,3144
8.544,-2.022,3135
8.548,-1.552,3135
8.552,-1.005,3135
8.556,-0.415,3135
8.560,0.897,3135
8.564,1.308,3135
8.568,1.587,3135
8.572,1.688,3135
8.576,1.567,3135
8.580,1.250,3134
8.584,0.772,3134
8.588,0.230,3134
8.592,-0.362,3134
8.596,-0.990,3134
8.600,-1.603,3134
8.604,-2.062,3134
8.608,-2.342,3134
8.612,-2.422,3134
8.616,-2.303,3134
8.620,-2.005,3133
8.624,-1.530,3133
8.628,-0.988,3133
8.632,-0.390,3133
8.636,0.237,3133
8.640,1.383,3133
8.644,1.613,3133
8.648,1.708,3133
8.652,1.590,3133
8.656,1.268,3127
8.660,0.782,3127
8.664,0.245,3127
8.668,-0.362,3127
8.672,-0.993,3127
8.676,-1.607,3127
8.680,-2.087,3127
8.684,-2.362,3127
8.688,-2.458,3127
8.692,-2.342,3127
8.696,-2.035,3117
8.700,-1.567,3117
8.704,-1.012,3117
8.708,-0.417,3117
8.712,0.217,3117
8.716,0.820,3117
8.720,1.630,3117
8.724,1.700,3117
8.728,1.577,3117
8.732,1.238,3117
8.736,0.767,3123
8.740,0.207,3123
8.744,-0.383,3123
8.748,-1.018,3123
8.752,-1.625,3123
8.756,-2.095,3123
8.760,-2.368,3123
8.764,-2.453,3123
8.768,-2.328,3123
8.772,-2.015,3123
8.776,-1.548,3127
8.780,-0.988,3127
8.784,-0.395,3127
8.788,0.237,3127
8.792,0.845,3127
8.796,1.327,3127
8.800,1.698,3127
8.804,1.512,3127
8.808,1.210,3105
8.812,0.145,3105
8.816,-0.417,3105
8.820,-1.010,3105
8.824,-1.607,3105
8.828,-2.062,3105
8.832,-2.342,3105
8.836,-2.428,3105
8.840,-2.300,3105
8.844,-1.988,3105
8.848,-1.508,3152
8.852,-0.930,3152
8.856,-0.347,3152
8.860,0.278,3152
8.864,0.868,3152
8.868,1.345,3152
8.872,1.627,3152
8.876,1.715,3152
8.880,1.188,3115
8.884,0.217,3115
8.888,-0.372,3115
8.892,-1.028,3115
8.896,-1.613,3115
8.900,-2.083,3115
8.904,-2.348,3115
8.908,-2.425,3115
8.912,-2.303,3115
8.916,-1.982,3115
8.920,-1.512,3126
8.924,-0.940,3126
8.928,-0.352,3126
8.932,0.268,3126
8.936,0.858,3126
8.940,1.323,3126
8.944,1.583,3126
8.948,1.663,3126
8.952,1.532,3126
8.956,1.192,3126
8.960,0.062,3107
8.964,-1.067,3107
8.968,-1.657,3107
8.972,-2.112,3107
8.976,-2.373,3107
8.980,-2.447,3107
8.984,-2.308,3107
8.988,-1.988,3107
8.992,-1.505,3114
8.996,-0.932,3114
9.000,-0.347,3114
9.004,0.287,3114
9.008,0.873,3114
9.012,1.343,3114
9.016,1.630,3114
9.020,1.702,3114
9.024,1.565,3114
9.028,1.228,3114
9.032,0.748,3125
9.036,0.188,3125
9.040,-1.137,3125
9.044,-1.630,3125
9.048,-2.095,3125
9.052,-2.353,3125
9.056,-2.445,3125
9.060,-2.312,3125
9.064,-2.002,3125
9.068,-1.528,3118
9.072,-0.948,3118
9.076,-0.367,3118
9.080,0.270,3118
9.084,0.868,3118
9.088,1.353,3118
9.092,1.630,3118
9.096,1.708,3118
9.100,1.567,3118
9.104,1.222,3118
9.108,0.738,3123
9.112,0.168,3123
9.116,-0.430,3123
9.120,-1.762,3123
9.124,-2.132,3123
9.128,-2.385,3123
9.132,-2.458,3123
9.136,-2.325,3123
9.140,-1.990,3123
9.144,-1.502,3124
9.148,-0.917,3124
9.152,-0.333,3124
9.156,0.300,3124
9.160,0.902,3124
9.164,1.367,3124
9.168,1.637,3124
9.172,1.718,3124
9.176,1.583,3124
9.180,1.238,3124
9.184,0.752,3129
9.188,0.182,3129
9.192,-0.412,3129
9.196,-1.042,3129
9.200,-2.143,3129
9.204,-2.408,3129
9.208,-2.268,3129
9.212,-1.938,3129
9.216,-1.448,3127
9.220,-0.865,3127
9.224,-0.282,3127
9.228,0.343,3127
9.232,0.927,3127
9.236,1.390,3127
9.240,1.653,3127
9.244,1.712,3127
9.248,1.567,3127
9.252,1.170,3127
9.256,0.733,3130
9.260,0.172,3130
9.264,-0.432,3130
9.268,-1.058,3130
9.272,-1.660,3130
9.276,-2.132,3130
9.280,-2.433,3130
9.284,-2.303,3130
9.288,-1.978,3130
9.292,-1.490,3098
9.296,-0.912,3098
9.300,-0.333,3098
9.304,0.302,3098
9.308,0.897,3098
9.312,1.373,3098
9.316,1.647,3098
9.320,1.710,3098
9.324,1.552,3098
9.328,1.198,3098
9.332,0.715,3147
9.336,0.150,3147
9.340,-0.443,3147
9.344,-1.062,3147
9.348,-1.660,3147
9.352,-2.105,3147
9.356,-2.350,3147
9.360,-2.223,3147
9.364,-1.827,3147
9.368,-1.458,3138
9.372,-0.892,3138
9.376,-0.282,3138
9.380,0.347,3138
9.384,0.938,3138
9.388,1.407,3138
9.392,1.670,3138
9.396,1.738,3138
9.400,1.580,3138
9.404,1.232,3138
9.408,0.740,3112
9.412,0.152,3112
9.416,-0.453,3112
9.420,-1.087,3112
9.424,-1.688,3112
9.428,-2.138,3112
9.432,-2.382,3112
9.436,-2.442,3112
9.440,-1.870,3112
9.444,-1.452,3134
9.448,-0.887,3134
9.452,-0.287,3134
9.456,0.343,3134
9.460,0.927,3134
9.464,1.387,3134
9.468,1.645,3134
9.472,1.702,3134
9.476,1.542,3134
9.480,1.192,3134
9.484,0.708,3134
9.488,0.133,3134
9.492,-0.470,3134
9.496,-1.103,3134
9.500,-1.702,3134
9.504,-2.147,3134
9.508,-2.393,3134
9.512,-2.455,3134
9.516,-2.297,3134
9.520,-1.363,3133
9.524,-0.268,3133
9.528,0.362,3133
9.532,0.948,3133
9.536,1.413,3133
9.540,1.673,3133
9.544,1.738,3133
9.548,1.573,3133
9.552,1.218,3133
9.556,0.718,3117
9.560,0.142,3117
9.564,-0.482,3117
9.568,-1.105,3117
9.572,-1.700,3117
9.576,-2.143,3117
9.580,-2.382,3117
9.584,-2.440,3117
9.588,-2.288,3117
9.592,-1.942,3117
9.596,-1.442,3127
9.600,-0.170,3127
9.604,0.365,3127
9.608,0.945,3127
9.612,1.397,3127
9.616,1.653,3127
9.620,1.705,3127
9.624,1.538,3127
9.628,1.185,3127
9.632,0.688,3132
9.636,0.102,3132
9.640,-0.537,3132
9.644,-1.147,3132
9.648,-1.730,3132
9.652,-2.170,3132
9.656,-2.410,3132
9.660,-2.458,3132
9.664,-2.292,3132
9.668,-1.942,3132
9.672,-1.445,3132
9.676,-0.850,3132
9.680,0.495,3132
9.684,0.958,3132
9.688,1.417,3132
9.692,1.670,3132
9.696,1.718,3132
9.700,1.558,3132
9.704,1.208,3132
9.708,0.713,3132
9.712,0.142,3125
9.716,-0.468,3125
9.720,-1.093,3125
9.724,-1.673,3125
9.728,-2.123,3125
9.732,-2.353,3125
9.736,-2.413,3125
9.740,-2.257,3125
9.744,-1.903,3125
9.748,-1.415,3125
9.752,-0.860,3119
9.756,-0.247,3119
9.760,1.062,3119
9.764,1.397,3119
9.768,1.663,3119
9.772,1.690,3119
9.776,1.528,3119
9.780,1.175,3119
9.784,0.672,3119
9.788,0.115,3115
9.792,-0.512,3115
9.796,-1.133,3115
9.800,-1.712,3115
9.804,-2.160,3115
9.808,-2.393,3115
9.812,-2.453,3115
9.816,-2.297,3115
9.820,-1.948,3115
9.824,-1.452,3115
9.828,-0.873,3120
9.832,-0.247,3120
9.836,0.380,3120
9.840,1.468,3120
9.844,1.702,3120
9.848,1.538,3120
9.852,1.173,3120
9.856,0.667,3120
9.860,0.102,3118
9.864,-0.527,3118
9.868,-1.140,3118
9.872,-1.725,3118
9.876,-2.152,3118
9.880,-2.385,3118
9.884,-2.425,3118
9.888,-2.257,3118
9.892,-1.900,3118
9.896,-1.403,3118
9.900,-0.828,3111
9.904,-0.210,3111
9.908,0.417,3111
9.912,0.998,3111
9.916,1.433,3111
9.920,1.708,3111
9.924,1.542,3111
9.928,1.180,3111
9.932,0.688,3111
9.936,0.113,3118
9.940,-0.520,3118
9.944,-1.135,3118
9.948,-1.725,3118
9.952,-2.163,3118
9.956,-2.402,3118
9.960,-2.442,3118
9.964,-2.283,3118
9.968,-1.817,3118
9.972,-1.423,3118
9.976,-0.860,3137
9.980,-0.233,3137
9.984,0.388,3137
9.988,0.958,3137
9.992,1.413,3137
9.996,1.663,3137
10.000,1.492,3137
10.004,1.167,3137
10.008,0.662,3137
10.012,0.102,3118
10.016,-0.527,3118
10.020,-1.153,3118
10.024,-1.772,3118
10.028,-2.163,3118
10.032,-2.402,3118
10.036,-2.440,3118
10.040,-2.272,3118
10.044,-1.897,3118
10.048,-1.167,3126
10.052,-0.207,3126
10.056,0.420,3126
10.060,1.008,3126
10.064,1.438,3126
10.068,1.675,3126
10.072,1.712,3126
10.076,1.538,3126
10.080,0.552,3126
10.084,0.072,3127
10.088,-0.562,3127
10.092,-1.183,3127
10.096,-1.772,3127
10.100,-2.192,3127
10.104,-2.430,3127
10.108,-2.458,3127
10.112,-2.290,3127
10.116,-1.927,3127
10.120,-1.407,3127
10.124,-0.830,3118
10.128,-0.217,3118
10.132,0.412,3118
10.136,0.985,3118
10.140,1.433,3118
10.144,1.670,3118
10.148,1.712,3118
10.152,1.532,3118
10.156,1.150,3118
10.160,-0.022,3128
10.164,-1.222,3128
10.168,-1.732,3128
10.172,-2.160,3128
10.176,-2.385,3128
10.180,-2.417,3128
10.184,-2.252,3128
10.188,-1.883,3128
10.192,-1.383,3128
10.196,-0.823,3112
10.200,-0.220,3112
10.204,0.398,3112
10.208,0.978,3112
10.212,1.397,3112
10.216,1.633,3112
10.220,1.663,3112
10.224,1.482,3112
10.228,1.107,3112
10.232,0.598,3112
10.236,0.048,3127
10.240,-1.312,3127
10.244,-2.230,3127
10.248,-2.447,3127
10.252,-2.455,3127
10.256,-2.270,3127
10.260,-1.893,3127
10.264,-1.383,3127
10.268,-0.812,3122
10.272,-0.182,3122
10.276,0.432,3122
10.280,1.012,3122
10.284,1.450,3122
10.288,1.673,3122
10.292,1.705,3122
10.296,1.512,3122
10.300,1.140,3122
10.304,0.632,3122
10.308,0.070,3140
10.312,-0.562,3140
10.316,-1.177,3140
10.320,-2.215,3140
10.324,-2.402,3140
10.328,-2.417,3140
10.332,-2.228,3140
10.336,-1.863,3140
10.340,-1.363,3140
10.344,-0.780,3138
10.348,-0.163,3138
10.352,0.463,3138
10.356,1.030,3138
10.360,1.462,3138
10.364,1.688,3138
10.368,1.698,3138
10.372,1.502,3138
10.376,1.113,3138
10.380,0.598,3138
10.384,0.050,3141
10.388,-0.588,3141
10.392,-1.212,3141
10.396,-1.782,3141
10.400,-2.428,3141
10.404,-2.422,3141
10.408,-2.228,3141
10.412,-1.863,3141
10.416,-1.350,3141
10.420,-0.770,3134
10.424,-0.100,3134
10.428,0.477,3134
10.432,1.035,3134
10.436,1.468,3134
10.440,1.692,3134
10.444,1.718,3134
10.448,1.528,3134
10.452,1.133,3134
10.456,0.618,3134
10.460,0.048,3143
10.464,-0.585,3143
10.468,-1.208,3143
10.472,-1.780,3143
10.476,-2.183,3143
10.480,-2.410,3143
10.484,-2.228,3143
10.488,-1.857,3143
10.492,-1.347,3143
10.496,-0.767,3134
10.500,-0.165,3134
10.504,0.460,3134
10.508,1.028,3134
10.512,1.458,3134
10.516,1.688,3134
10.520,1.702,3134
10.524,1.502,3134
10.528,1.107,3134
10.532,0.608,3134
10.536,0.045,3123
10.540,-0.593,3123
10.544,-1.220,3123
10.548,-1.802,3123
10.552,-2.208,3123
10.556,-2.415,3123
10.560,-2.188,3123
10.564,-1.857,3123
10.568,-1.335,3123
10.572,-0.752,3117
10.576,-0.122,3117
10.580,0.500,3117
10.584,1.062,3117
10.588,1.472,3117
10.592,1.690,3117
10.596,1.702,3117
10.600,1.502,3117
10.604,1.113,3117
10.608,0.598,3117
10.612,0.037,3129
10.616,-0.605,3129
10.620,-1.222,3129
10.624,-1.802,3129
10.628,-2.205,3129
10.632,-2.417,3129
10.636,-2.430,3129
10.640,-1.792,3129
10.644,-1.353,3129
10.648,-0.772,3135
10.652,-0.168,3135
10.656,0.458,3135
10.660,1.028,3135
10.664,1.452,3135
10.668,1.667,3135
10.672,1.688,3135
10.676,1.495,3135
10.680,1.105,3135
10.684,0.600,3135
10.688,0.045,3136
10.692,-0.593,3136
10.696,-1.212,3136
10.700,-1.782,3136
10.704,-2.183,3136
10.708,-2.402,3136
10.712,-2.415,3136
10.716,-2.217,3136
10.720,-1.218,3136
10.724,-0.077,3120
10.728,1.093,3120
10.732,1.470,3120
10.736,1.692,3120
10.740,1.705,3120
10.744,1.498,3120
10.748,1.097,3120
10.752,0.588,3120
10.756,0.020,3120
10.760,-0.613,3108
10.764,-1.248,3108
10.768,-1.808,3108
10.772,-2.205,3108
10.776,-2.410,3108
10.780,-2.417,3108
10.784,-2.212,3108
10.788,-1.812,3108
10.792,-1.292,3108
10.796,-0.733,3108
10.800,0.623,3109
10.804,1.532,3109
10.808,1.718,3109
10.812,1.728,3109
10.816,1.518,3109
10.820,1.113,3109
10.824,0.593,3109
10.828,0.020,3109
10.832,-0.610,3120
10.836,-1.250,3120
10.840,-1.812,3120
10.844,-2.192,3120
10.848,-2.402,3120
10.852,-2.390,3120
10.856,-2.188,3120
10.860,-1.802,3120
10.864,-1.295,3120
10.868,-0.723,3120
10.872,-0.107,3116
10.876,0.527,3116
10.880,1.528,3116
10.884,1.677,3116
10.888,1.677,3116
10.892,1.470,3116
10.896,1.065,3116
10.900,0.547,3116
10.904,-0.028,3116
10.908,-0.642,3103
10.912,-1.265,3103
10.916,-1.815,3103
10.920,-2.192,3103
10.924,-2.388,3103
10.928,-2.377,3103
10.932,-2.175,3103
10.936,-1.788,3103
10.940,-1.262,3103
10.944,-0.695,3103
10.948,-0.087,3105
10.952,0.550,3105
10.956,1.093,3105
10.960,1.710,3105
10.964,1.695,3105
10.968,1.488,3105
10.972,1.077,3105
10.976,0.562,3105
10.980,-0.013,3105
10.984,-0.642,3123
10.988,-1.262,3123
10.992,-1.820,3123
10.996,-2.212,3123
11.000,-2.408,3123
11.004,-2.417,3123
11.008,-2.210,3123
11.012,-1.820,3123
11.016,-1.302,3123
11.020,-0.728,3123
11.024,-0.107,3125
11.028,0.537,3125
11.032,1.087,3125
11.036,1.498,3125
11.040,1.673,3125
11.044,1.478,3125
11.048,1.073,3125
11.052,0.552,3125
11.056,-0.030,3125
11.060,-0.660,3101
11.064,-1.302,3101
11.068,-1.853,3101
11.072,-2.243,3101
11.076,-2.420,3101
11.080,-2.417,3101
11.084,-2.195,3101
11.088,-1.802,3101
11.092,-1.260,3101
11.096,-0.693,3101
11.100,-0.083,3126
11.104,0.550,3126
11.108,1.097,3126
11.112,1.502,3126
11.116,1.702,3126
11.120,1.430,3126
11.124,1.087,3126
11.128,0.573,3126
11.132,-0.013,3126
11.136,-0.625,3129
11.140,-1.265,3129
11.144,-1.827,3129
11.148,-2.217,3129
11.152,-2.408,3129
11.156,-2.402,3129
11.160,-2.175,3129
11.164,-1.788,3129
11.168,-1.255,3129
11.172,-0.610,3129
11.176,-0.060,3129
11.180,0.568,3129
11.184,1.107,3129
11.188,1.510,3129
11.192,1.708,3129
11.196,1.692,3129
11.200,0.983,3129
11.204,0.542,3129
11.208,-0.043,3129
11.212,-0.662,3117
11.216,-1.298,3117
11.220,-1.833,3117
11.224,-2.212,3117
11.228,-2.402,3117
11.232,-2.382,3117
11.236,-2.178,3117
11.240,-1.782,3117
11.244,-1.258,3117
11.248,-0.690,3117
11.252,-0.087,3145
11.256,0.547,3145
11.260,1.087,3145
11.264,1.478,3145
11.268,1.673,3145
11.272,1.663,3145
11.276,1.423,3145
11.280,0.398,3145
11.284,-0.087,3145
11.288,-0.708,3144
11.292,-1.347,3144
11.296,-1.885,3144
11.300,-2.257,3144
11.304,-2.428,3144
11.308,-2.413,3144
11.312,-2.188,3144
11.316,-1.778,3144
11.320,-1.232,3144
11.324,-0.657,3144
11.328,-0.043,3146
11.332,0.613,3146
11.336,1.147,3146
11.340,1.538,3146
11.344,1.728,3146
11.348,1.700,3146
11.352,1.468,3146
11.356,1.038,3146
11.360,-0.193,3146
11.364,-0.733,3158
11.368,-1.373,3158
11.372,-1.930,3158
11.376,-2.292,3158
11.380,-2.473,3158
11.384,-2.458,3158
11.388,-2.243,3158
11.392,-1.817,3158
11.396,-1.265,3158
11.400,-0.693,3158
11.404,-0.052,3112
11.408,0.583,3112
11.412,1.117,3112
11.416,1.512,3112
11.420,1.708,3112
11.424,1.688,3112
11.428,1.462,3112
11.432,1.048,3112
11.436,0.525,3112
11.440,-0.802,3125
11.444,-1.875,3125
11.448,-2.252,3125
11.452,-2.422,3125
11.456,-2.405,3125
11.460,-2.172,3125
11.464,-1.768,3125
11.468,-1.225,3125
11.472,-0.652,3125
11.476,-0.028,3130
11.480,0.590,3130
11.484,1.130,3130
11.488,1.508,3130
11.492,1.695,3130
11.496,1.663,3130
11.500,1.425,3130
11.504,1.010,3130
11.508,0.470,3130
11.512,-0.100,3130
11.516,-0.723,3123
11.520,-2.013,3123
11.524,-2.303,3123
11.528,-2.435,3123
11.532,-2.402,3123
11.536,-2.167,3123
11.540,-1.742,3123
11.544,-1.202,3123
11.548,-0.642,3123
11.552,-0.018,3138
11.556,0.618,3138
11.560,1.180,3138
11.564,1.538,3138
11.568,1.710,3138
11.572,1.677,3138
11.576,1.433,3138
11.580,1.008,3138
11.584,0.448,3138
11.588,-0.107,3138
11.592,-0.738,3121
11.596,-1.373,3121
11.600,-2.312,3121
11.604,-2.442,3121
11.608,-2.377,3121
11.612,-2.178,3121
11.616,-1.663,3121
11.620,-1.200,3121
11.624,-0.642,3121
11.628,-0.018,3125
11.632,0.610,3125
11.636,1.147,3125
11.640,1.512,3125
11.644,1.677,3125
11.648,1.647,3125
11.652,1.397,3125
11.656,0.983,3125
11.660,0.440,3125
11.664,-0.122,3125
11.668,-0.738,3117
11.672,-1.377,3117
11.676,-1.900,3117
11.680,-2.422,3117
11.684,-2.375,3117
11.688,-2.140,3117
11.692,-1.722,3117
11.696,-1.180,3117
11.700,-0.605,3117
11.704,0.022,3117
11.708,0.623,3127
11.712,1.157,3127
11.716,1.515,3127
11.720,1.688,3127
11.724,1.660,3127
11.728,1.410,3127
11.732,0.993,3127
11.736,0.463,3127
11.740,-0.107,3127
11.744,-0.728,3127
11.748,-1.347,3145
11.752,-1.887,3145
11.756,-2.228,3145
11.760,-2.333,3145
11.764,-2.125,3145
11.768,-1.708,3145
11.772,-1.180,3145
11.776,-0.593,3145
11.780,-0.013,3145
11.784,0.613,3129
11.788,1.153,3129
11.792,1.505,3129
11.796,1.670,3129
11.800,1.645,3129
11.804,1.387,3129
11.808,0.958,3129
11.812,0.438,3129
11.816,-0.138,3129
11.820,-0.770,3129
11.824,-1.387,3123
11.828,-1.923,3123
11.832,-2.260,3123
11.836,-2.417,3123
11.840,-2.058,3123
11.844,-1.698,3123
11.848,-1.165,3123
11.852,-0.588,3123
11.856,0.045,3123
11.860,0.652,3105
11.864,1.180,3105
11.868,1.538,3105
11.872,1.698,3105
11.876,1.653,3105
11.880,1.407,3105
11.884,0.973,3105
11.888,0.432,3105
11.892,-0.142,3105
11.896,-0.775,3105
11.900,-1.397,3103
11.904,-1.945,3103
11.908,-2.285,3103
11.912,-2.428,3103
11.916,-2.382,3103
11.920,-1.645,3103
11.924,-1.183,3103
11.928,-0.610,3103
11.932,0.018,3103
11.936,0.618,3088
11.940,1.165,3088
11.944,1.515,3088
11.948,1.690,3088
11.952,1.647,3088
11.956,1.387,3088
11.960,0.948,3088
11.964,0.425,3088
11.968,-0.147,3088
11.972,-0.782,3088
11.976,-1.407,3106
11.980,-1.938,3106
11.984,-2.270,3106
11.988,-2.422,3106
11.992,-2.377,3106
11.996,-2.132,3106
12.000,-1.062,3106
12.004,-0.497,3106
12.008,0.048,3106
12.012,0.657,3121
12.016,1.558,3121
12.020,1.708,3121
12.024,1.667,3121
12.028,1.397,3121
12.032,0.932,3121
12.036,0.427,3121
12.040,-0.142,3121
12.044,-0.828,3121
12.048,-1.393,3119
12.052,-1.923,3119
12.056,-2.263,3119
12.060,-2.410,3119
12.064,-2.353,3119
12.068,-2.107,3119
12.072,-1.688,3119
12.076,-1.145,3119
12.080,0.168,3119
12.084,0.670,3104
12.088,1.195,3104
12.092,1.552,3104
12.096,1.710,3104
12.100,1.670,3104
12.104,1.417,3104
12.108,0.988,3104
12.112,0.450,3104
12.116,-0.133,3104
12.120,-0.757,3104
12.124,-1.393,3116
12.128,-1.927,3116
12.132,-2.268,3116
12.136,-2.422,3116
12.140,-2.373,3116
12.144,-2.123,3116
12.148,-1.692,3116
12.152,-1.163,3116
12.156,-0.580,3116
12.160,0.738,3117
12.164,1.528,3117
12.168,1.673,3117
12.172,1.620,3117
12.176,1.343,3117
12.180,0.897,3117
12.184,0.355,3117
12.188,-0.217,3117
12.192,-0.855,3117
12.196,-1.465,3110
12.200,-1.982,3110
12.204,-2.303,3110
12.208,-2.453,3110
12.212,-2.385,3110
12.216,-2.132,3110
12.220,-1.705,3110
12.224,-1.163,3110
12.228,-0.580,3110
12.232,0.050,3110
12.236,0.660,3112
12.240,1.573,3112
12.244,1.690,3112
12.248,1.633,3112
12.252,1.377,3112
12.256,0.932,3112
12.260,0.398,3112
12.264,-0.188,3112
12.268,-0.820,3112
12.272,-1.448,3137
12.276,-1.972,3137
12.280,-2.297,3137
12.284,-2.447,3137
12.288,-2.382,3137
12.292,-2.123,3137
12.296,-1.673,3137
12.300,-1.133,3137
12.304,-0.547,3137
12.308,0.072,3137
12.312,0.682,3134
12.316,1.198,3134
12.320,1.677,3134
12.324,1.600,3134
12.328,1.333,3134
12.332,0.863,3134
12.336,0.350,3134
12.340,-0.228,3134
12.344,-0.860,3134
12.348,-1.472,3140
12.352,-1.998,3140
12.356,-2.453,3140
12.360,-2.382,3140
12.364,-2.123,3140
12.368,-1.683,3140
12.372,-1.137,3140
12.376,-0.542,3140
12.380,0.077,3140
12.384,0.693,3130
12.388,1.212,3130
12.392,1.552,3130
12.396,1.708,3130
12.400,1.308,3130
12.404,0.877,3130
12.408,0.352,3130
12.412,-0.263,3130
12.416,-0.882,3130
12.420,-1.455,3133
12.424,-1.975,3133
12.428,-2.308,3133
12.432,-2.430,3133
12.436,-2.365,3133
12.440,-2.105,3133
12.444,-1.667,3133
12.448,-1.125,3133
12.452,-0.542,3133
12.456,0.070,3133
12.460,0.693,3144
12.464,1.198,3144
12.468,1.548,3144
12.472,1.677,3144
12.476,1.610,3144
12.480,0.797,3144
12.484,0.350,3144
12.488,-0.242,3144
12.492,-0.940,3144
12.496,-1.488,3139
12.500,-2.005,3139
12.504,-2.322,3139
12.508,-2.453,3139
12.512,-2.380,3139
12.516,-2.123,3139
12.520,-1.673,3139
12.524,-1.127,3139
12.528,-0.540,3139
12.532,0.095,3139
12.536,0.703,3129
12.540,1.212,3129
12.544,1.545,3129
12.548,1.677,3129
12.552,1.595,3129
12.556,1.323,3129
12.560,0.233,3129
12.564,-0.258,3129
12.568,-0.887,3129
12.572,-1.505,3140
12.576,-2.018,3140
12.580,-2.333,3140
12.584,-2.458,3140
12.588,-2.382,3140
12.592,-2.123,3140
12.596,-1.683,3140
12.600,-1.130,3140
12.604,-0.542,3140
12.608,0.095,3140
12.612,0.710,3137
12.616,1.218,3137
12.620,1.548,3137
12.624,1.692,3137
12.628,1.613,3137
12.632,1.327,3137
12.636,0.868,3137
12.640,-0.362,3137
12.644,-1.625,3125
12.648,-2.348,3125
12.652,-2.420,3125
12.656,-2.342,3125
12.660,-2.060,3125
12.664,-1.613,3125
12.668,-1.058,3125
12.672,-0.468,3125
12.676,0.152,3125
12.680,0.767,3135
12.684,1.265,3135
12.688,1.583,3135
12.692,1.708,3135
12.696,1.633,3135
12.700,1.347,3135
12.704,0.892,3135
12.708,0.347,3135
12.712,-0.270,3135
12.716,-0.892,3135
12.720,-2.087,3103
12.724,-2.453,3103
12.728,-2.373,3103
12.732,-2.098,3103
12.736,-1.650,3103
12.740,-1.093,3103
12.744,-0.507,3103
12.748,0.117,3103
12.752,0.733,3103
12.756,1.230,3126
12.760,1.558,3126
12.764,1.688,3126
12.768,1.590,3126
12.772,1.308,3126
12.776,0.850,3126
12.780,0.295,3126
12.784,-0.290,3126
12.788,-0.907,3126
12.792,-1.532,3126
12.796,-2.033,3121
12.800,-2.498,3121
12.804,-2.330,3121
12.808,-2.062,3121
12.812,-1.633,3121
12.816,-1.070,3121
12.820,-0.482,3121
12.824,0.170,3121
12.828,0.757,3121
12.832,1.268,3118
12.836,1.587,3118
12.840,1.708,3118
12.844,1.617,3118
12.848,1.323,3118
12.852,0.848,3118
12.856,0.287,3118
12.860,-0.310,3118
12.864,-0.963,3118
12.868,-1.577,3118
12.872,-2.067,3117
12.876,-2.375,3117
12.880,-2.350,3117
12.884,-2.103,3117
12.888,-1.647,3117
12.892,-1.073,3117
12.896,-0.468,3117
12.900,0.172,3117
12.904,0.777,3117
12.908,1.292,3111
12.912,1.597,3111
12.916,1.718,3111
12.920,1.620,3111
12.924,1.327,3111
12.928,0.863,3111
12.932,0.300,3111
12.936,-0.287,3111
12.940,-0.922,3111
12.944,-1.538,3111
12.948,-2.035,3107
12.952,-2.342,3107
12.956,-2.458,3107
12.960,-2.013,3107
12.964,-1.627,3107
12.968,-1.070,3107
12.972,-0.492,3107
12.976,0.138,3107
12.980,0.748,3107
12.984,1.248,3107
12.988,1.570,3107
12.992,1.690,3107
12.996,1.587,3107
13.000,1.308,3107
13.004,0.843,3107
13.008,0.290,3107
13.012,-0.292,3107
13.016,-0.930,3107
13.020,-1.532,3107
13.024,-2.027,3119
13.028,-2.333,3119
13.032,-2.450,3119
13.036,-2.348,3119
13.040,-1.555,3119
13.044,-1.028,3119
13.048,-0.463,3119
13.052,0.207,3119
13.056,0.767,3119
13.060,1.258,3129
13.064,1.577,3129
13.068,1.698,3129
13.072,1.593,3129
13.076,1.305,3129
13.080,0.828,3129
13.084,0.278,3129
13.088,-0.323,3129
13.092,-0.938,3129
13.096,-1.627,3129
13.100,-2.042,3121
13.104,-2.342,3121
13.108,-2.442,3121
13.112,-2.340,3121
13.116,-2.047,3121
13.120,-0.927,3121
13.124,-0.425,3121
13.128,0.205,3121
13.132,0.797,3121
13.136,1.308,3108
13.140,1.613,3108
13.144,1.708,3108
13.148,1.597,3108
13.152,1.298,3108
13.156,0.828,3108
13.160,0.263,3108
13.164,-0.333,3108
13.168,-0.968,3108
13.172,-1.567,3108
13.176,-2.047,3125
13.180,-2.348,3125
13.184,-2.442,3125
13.188,-2.337,3125
13.192,-2.042,3125
13.196,-1.580,3125
13.200,-0.338,3125
13.204,0.190,3125
13.208,0.790,3125
13.212,1.298,3115
13.216,1.617,3115
13.220,1.718,3115
13.224,1.597,3115
13.228,1.298,3115
13.232,0.828,3115
13.236,0.270,3115
13.240,-0.333,3115
13.244,-0.973,3115
13.248,-1.573,3115
13.252,-2.058,3123
13.256,-2.348,3123
13.260,-2.442,3123
13.264,-2.330,3123
13.268,-2.022,3123
13.272,-1.550,3123
13.276,-0.990,3123
13.280,0.343,3123
13.284,0.833,3123
13.288,1.323,3138
13.292,1.620,3138
13.296,1.708,3138
13.300,1.587,3138
13.304,1.268,3138
13.308,0.792,3138
13.312,0.242,3138
13.316,-0.365,3138
13.320,-1.002,3138
13.324,-1.607,3138
13.328,-2.087,3151
13.332,-2.368,3151
13.336,-2.455,3151
13.340,-2.348,3151
13.344,-2.045,3151
13.348,-1.575,3151
13.352,-1.020,3151
13.356,-0.427,3151
13.360,0.897,3151
13.364,1.308,3148
13.368,1.593,3148
13.372,1.715,3148
13.376,1.593,3148
13.380,1.292,3148
13.384,0.818,3148
13.388,0.258,3148
13.392,-0.345,3148
13.396,-0.983,3148
13.400,-1.603,3148
13.404,-2.083,3128
13.408,-2.368,3128
13.412,-2.458,3128
13.416,-2.353,3128
13.420,-2.058,3128
13.424,-1.610,3128
13.428,-1.045,3128
13.432,-0.448,3128
13.436,0.188,3128
13.440,1.353,3133
13.444,1.705,3133
13.448,1.583,3133
13.452,1.265,3133
13.456,0.797,3133
13.460,0.253,3133
13.464,-0.343,3133
13.468,-0.973,3133
13.472,-1.562,3133
13.476,-2.035,3120
13.480,-2.330,3120
13.484,-2.420,3120
13.488,-2.297,3120
13.492,-1.992,3120
13.496,-1.528,3120
13.500,-0.973,3120
13.504,-0.372,3120
13.508,0.263,3120
13.512,0.865,3120
13.516,1.343,3139
13.520,1.700,3139
13.524,1.587,3139
13.528,1.268,3139
13.532,0.797,3139
13.536,0.253,3139
13.540,-0.352,3139
13.544,-0.990,3139
13.548,-1.603,3139
13.552,-2.065,3091
13.556,-2.362,3091
13.560,-2.453,3091
13.564,-2.333,3091
13.568,-2.018,3091
13.572,-1.545,3091
13.576,-0.985,3091
13.580,-0.383,3091
13.584,0.247,3091
13.588,0.858,3091
13.592,1.337,3132
13.596,1.620,3132
13.600,1.538,3132
13.604,1.248,3132
13.608,0.777,3132
13.612,0.228,3132
13.616,-0.367,3132
13.620,-1.002,3132
13.624,-1.603,3132
13.628,-2.062,3087
13.632,-2.348,3087
13.636,-2.433,3087
13.640,-2.308,3087
13.644,-1.988,3087
13.648,-1.520,3087
13.652,-0.950,3087
13.656,-0.362,3087
13.660,0.265,3087
13.664,0.870,3087
13.668,1.347,3136
13.672,1.633,3136
13.676,1.712,3136
13.680,1.190,3136
13.684,0.782,3136
13.688,0.233,3136
13.692,-0.362,3136
13.696,-0.993,3136
13.700,-1.583,3136
13.704,-2.053,3124
13.708,-2.337,3124
13.712,-2.417,3124
13.716,-2.292,3124
13.720,-1.978,3124
13.724,-1.383,3124
13.728,-0.932,3124
13.732,-0.352,3124
13.736,0.278,3124
13.740,0.877,3124
13.744,1.367,3124
13.748,1.647,3119
13.752,1.732,3119
13.756,1.593,3119
13.760,0.698,3119
13.764,0.223,3119
13.768,-0.383,3119
13.772,-1.022,3119
13.776,-1.630,3119
13.780,-2.100,3119
13.784,-2.373,3116
13.788,-2.453,3116
13.792,-2.312,3116
13.796,-2.002,3116
13.800,-1.525,3116
13.804,-0.950,3116
13.808,-0.362,3116
13.812,0.268,3116
13.816,0.873,3116
13.820,1.343,3116
13.824,1.623,3111
13.828,1.708,3111
13.832,1.577,3111
13.836,1.235,3111
13.840,0.113,3111
13.844,-0.383,3111
13.848,-1.022,3111
13.852,-1.617,3111
13.856,-2.083,3111
13.860,-2.337,3099
13.864,-2.417,3099
13.868,-2.285,3099
13.872,-1.940,3099
13.876,-1.472,3099
13.880,-0.927,3099
13.884,-0.338,3099
13.888,0.278,3099
13.892,0.865,3099
13.896,1.350,3099
13.900,1.610,3114
13.904,1.677,3114
13.908,1.540,3114
13.912,1.188,3114
13.916,0.713,3114
13.920,-0.550,3114
13.924,-1.077,3114
13.928,-1.667,3114
13.932,-2.132,3114
13.936,-2.388,3124
13.940,-2.462,3124
13.944,-2.328,3124
13.948,-1.988,3124
13.952,-1.508,3124
13.956,-0.938,3124
13.960,-0.345,3124
13.964,0.292,3124
13.968,0.892,3124
13.972,1.357,3124
13.976,1.635,3094
13.980,1.708,3094
13.984,1.567,3094
13.988,1.222,3094
13.992,0.743,3094
13.996,0.180,3094
14.000,-1.170,3094
14.004,-1.657,3094
14.008,-2.110,3094
14.012,-2.362,3117
14.016,-2.422,3117
14.020,-2.283,3117
14.024,-1.942,3117
14.028,-1.458,3117
14.032,-0.885,3117
14.036,-0.285,3117
14.040,0.343,3117
14.044,0.927,3117
14.048,1.393,3117
14.052,1.663,3121
14.056,1.732,3121
14.060,1.580,3121
14.064,1.232,3121
14.068,0.750,3121
14.072,0.193,3121
14.076,-0.417,3121
14.080,-1.738,3121
14.084,-2.110,3121
14.088,-2.368,3098
14.092,-2.428,3098
14.096,-2.285,3098
14.100,-1.950,3098
14.104,-1.462,3098
14.108,-0.902,3098
14.112,-0.328,3098
14.116,0.297,3098
14.120,0.892,3098
14.124,1.353,3098
14.128,1.617,3130
14.132,1.677,3130
14.136,1.528,3130
14.140,1.177,3130
14.144,0.698,3130
14.148,0.140,3130
14.152,-0.453,3130
14.156,-1.065,3130
14.160,-2.170,3130
14.164,-2.345,3123
14.168,-2.382,3123
14.172,-2.252,3123
14.176,-1.933,3123
14.180,-1.450,3123
14.184,-0.882,3123
14.188,-0.282,3123
14.192,0.347,3123
14.196,0.927,3123
14.200,1.387,3123
14.204,1.647,3151
14.208,1.710,3151
14.212,1.548,3151
14.216,1.208,3151
14.220,0.715,3151
14.224,0.147,3151
14.228,-0.455,3151
14.232,-1.090,3151
14.236,-1.688,3151
14.240,-2.408,3140
14.244,-2.283,3140
14.248,-1.940,3140
14.252,-1.458,3140
14.256,-0.887,3140
14.260,-0.250,3140
14.264,0.343,3140
14.268,0.917,3140
14.272,1.383,3140
14.276,1.647,3121
14.280,1.708,3121
14.284,1.540,3121
14.288,1.198,3121
14.292,0.713,3121
14.296,0.155,3121
14.300,-0.443,3121
14.304,-1.073,3121
14.308,-1.667,3121
14.312,-2.123,3121
14.316,-2.365,3130
14.320,-2.223,3130
14.324,-1.933,3130
14.328,-1.445,3130
14.332,-0.868,3130
14.336,-0.273,3130
14.340,0.352,3130
14.344,0.927,3130
14.348,1.377,3130
14.352,1.630,3134
14.356,1.692,3134
14.360,1.532,3134
14.364,1.177,3134
14.368,0.690,3134
14.372,0.117,3134
14.376,-0.490,3134
14.380,-1.103,3134
14.384,-1.698,3134
14.388,-2.123,3134
14.392,-2.348,3136
14.396,-2.402,3136
14.400,-1.820,3136
14.404,-0.775,3136
14.408,-0.223,3136
14.412,0.398,3136
14.416,0.985,3136
14.420,1.423,3136
14.424,1.673,3116
14.428,1.720,3116
14.432,1.552,3116
14.436,1.192,3116
14.440,0.693,3116
14.444,0.120,3116
14.448,-0.487,3116
14.452,-1.125,3116
14.456,-1.702,3116
14.460,-2.140,3116
14.464,-2.368,3132
14.468,-2.417,3132
14.472,-2.250,3132
14.476,-1.893,3132
14.480,-0.710,3132
14.484,-0.188,3132
14.488,0.517,3132
14.492,1.032,3132
14.496,1.458,3132
14.500,1.702,3125
14.504,1.742,3125
14.508,1.573,3125
14.512,1.212,3125
14.516,0.713,3125
14.520,0.147,3125
14.524,-0.470,3125
14.528,-1.110,3125
14.532,-1.708,3125
14.536,-2.140,3125
14.540,-2.377,3132
14.544,-2.428,3132
14.548,-2.265,3132
14.552,-1.925,3132
14.556,-1.423,3132
14.560,-0.163,3132
14.564,0.468,3132
14.568,0.990,3132
14.572,1.425,3132
14.576,1.663,3130
14.580,1.528,3130
14.584,1.192,3130
14.588,0.708,3130
14.592,0.142,3130
14.596,-0.463,3130
14.600,-1.093,3130
14.604,-1.685,3130
14.608,-2.112,3130
14.612,-2.345,3132
14.616,-2.405,3132
14.620,-2.248,3132
14.624,-1.883,3132
14.628,-1.390,3132
14.632,-0.823,3132
14.636,-0.212,3132
14.640,1.073,3132
14.644,1.452,3132
14.648,1.692,3124
14.652,1.732,3124
14.656,1.552,3124
14.660,1.183,3124
14.664,0.667,3124
14.668,0.113,3124
14.672,-0.502,3124
14.676,-1.133,3124
14.680,-1.712,3124
14.684,-2.147,3124
14.688,-2.382,3098
14.692,-2.442,3098
14.696,-2.283,3098
14.700,-1.933,3098
14.704,-1.423,3098
14.708,-0.858,3098
14.712,-0.247,3098
14.716,0.398,3098
14.720,1.485,3098
14.724,1.667,3098
14.728,1.715,3117
14.732,1.530,3117
14.736,1.177,3117
14.740,0.688,3117
14.744,0.128,3117
14.748,-0.497,3117
14.752,-1.123,3117
14.756,-1.692,3117
14.760,-2.123,3117
14.764,-2.350,3117
14.768,-2.413,3140
14.772,-2.245,3140
14.776,-1.887,3140
14.780,-1.383,3140
14.784,-0.812,3140
14.788,-0.205,3140
14.792,0.430,3140
14.796,1.020,3140
14.800,1.708,3117
14.804,1.532,3117
14.808,1.157,3117
14.812,0.657,3117
14.816,0.077,3117
14.820,-0.545,3117
14.824,-1.183,3117
14.828,-1.772,3117
14.832,-2.188,3117
14.836,-2.422,3117
14.840,-2.462,3127
14.844,-2.288,3127
14.848,-1.938,3127
14.852,-1.423,3127
14.856,-0.855,3127
14.860,-0.230,3127
14.864,0.395,3127
14.868,0.983,3127
14.872,1.417,3127
14.876,1.650,3127
14.880,1.433,3117
14.884,0.573,3117
14.888,0.037,3117
14.892,-0.575,3117
14.896,-1.200,3117
14.900,-1.775,3117
14.904,-2.183,3117
14.908,-2.402,3117
14.912,-2.425,3121
14.916,-2.243,3121
14.920,-1.863,3121
14.924,-1.355,3121
14.928,-0.777,3121
14.932,-0.142,3121
14.936,0.463,3121
14.940,0.978,3121
14.944,1.488,3121
14.948,1.728,3121
14.952,1.748,3082
14.956,1.518,3082
14.960,0.512,3082
14.964,0.043,3082
14.968,-0.593,3082
14.972,-1.222,3082
14.976,-1.805,3082
14.980,-2.217,3082
14.984,-2.442,3082
14.988,-2.462,3115
14.992,-2.285,3115
14.996,-1.923,3115
15.000,-1.407,3115
15.004,-0.828,3115
15.008,-0.207,3115
15.012,0.430,3115
15.016,1.018,3115
15.020,1.460,3115
15.024,1.708,3115
15.028,1.710,3121
15.032,1.512,3121
15.036,1.140,3121
15.040,-0.052,3121
15.044,-1.052,3121
15.048,-1.780,3121
15.052,-2.185,3121
15.056,-2.413,3121
15.060,-2.430,3120
15.064,-2.252,3120
15.068,-1.885,3120
15.072,-1.373,3120
15.076,-0.785,3120
15.080,-0.180,3120
15.084,0.448,3120
15.088,1.018,3120
15.092,1.430,3120
15.096,1.660,3120
15.100,1.673,3096
15.104,1.472,3096
15.108,1.093,3096
15.112,0.583,3096
15.116,0.018,3096
15.120,-1.337,3096
15.124,-1.812,3096
15.128,-2.212,3096
15.132,-2.422,3096
15.136,-2.453,3129
15.140,-2.252,3129
15.144,-1.875,3129
15.148,-1.367,3129
15.152,-0.782,3129
15.156,-0.177,3129
15.160,0.460,3129
15.164,1.032,3129
15.168,1.462,3129
15.172,1.690,3129
15.176,1.702,3128
15.180,1.492,3128
15.184,1.100,3128
15.188,0.588,3128
15.192,0.030,3128
15.196,-0.590,3128
15.200,-1.857,3128
15.204,-2.183,3128
15.208,-2.382,3128
15.212,-2.408,3138
15.216,-2.205,3138
15.220,-1.833,3138
15.224,-1.327,3138
15.228,-0.748,3138
15.232,-0.147,3138
15.236,0.463,3138
15.240,1.032,3138
15.244,1.455,3138
15.248,1.670,3138
15.252,1.688,3124
15.256,1.490,3124
15.260,1.105,3124
15.264,0.598,3124
15.268,0.045,3124
15.272,-0.580,3124
15.276,-1.208,3124
15.280,-2.250,3124
15.284,-2.410,3124
15.288,-2.425,3134
15.292,-2.220,3134
15.296,-1.847,3134
15.300,-1.330,3134
15.304,-0.748,3134
15.308,-0.145,3134
15.312,0.468,3134
15.316,1.028,3134
15.320,1.430,3134
15.324,1.647,3134
15.328,1.657,3141
15.332,1.452,3141
15.336,1.058,3141
15.340,0.542,3141
15.344,-0.030,3141
15.348,-0.642,3141
15.352,-1.262,3141
15.356,-1.830,3141
15.360,-2.440,3141
15.364,-2.433,3146
15.368,-2.243,3146
15.372,-1.850,3146
15.376,-1.330,3146
15.380,-0.740,3146
15.384,-0.128,3146
15.388,0.512,3146
15.392,1.073,3146
15.396,1.492,3146
15.400,1.702,3146
15.404,1.710,3127
15.408,1.492,3127
15.412,1.073,3127
15.416,0.568,3127
15.420,-0.007,3127
15.424,-0.618,3127
15.428,-1.248,3127
15.432,-1.820,3127
15.436,-2.228,3127
15.440,-2.408,3153
15.444,-1.823,3153
15.448,-1.312,3153
15.452,-0.735,3153
15.456,-0.122,3153
15.460,0.507,3153
15.464,1.058,3153
15.468,1.475,3153
15.472,1.688,3153
15.476,1.692,3145
15.480,1.468,3145
15.484,1.073,3145
15.488,0.557,3145
15.492,-0.018,3145
15.496,-0.642,3145
15.500,-1.252,3145
15.504,-1.827,3145
15.508,-2.225,3145
15.512,-2.422,3145
15.516,-2.422,3143
15.520,-1.760,3143
15.524,-1.323,3143
15.528,-0.733,3143
15.532,-0.122,3143
15.536,0.515,3143
15.540,1.077,3143
15.544,1.488,3143
15.548,1.698,3143
15.552,1.695,3135
15.556,1.478,3135
15.560,1.073,3135
15.564,0.552,3135
15.568,-0.022,3135
15.572,-0.662,3135
15.576,-1.298,3135
15.580,-1.857,3135
15.584,-2.255,3135
15.588,-2.435,3135
15.592,-2.430,3128
15.596,-2.215,3128
15.600,-1.208,3128
15.604,-0.730,3128
15.608,-0.113,3128
15.612,0.527,3128
15.616,1.077,3128
15.620,1.485,3128
15.624,1.692,3128
15.628,1.692,3118
15.632,1.462,3118
15.636,1.062,3118
15.640,0.540,3118
15.644,-0.033,3118
15.648,-0.662,3118
15.652,-1.302,3118
15.656,-1.853,3118
15.660,-2.250,3118
15.664,-2.428,3118
15.668,-2.420,3120
15.672,-2.192,3120
15.676,-1.808,3120
15.680,-0.598,3120
15.684,-0.090,3120
15.688,0.542,3120
15.692,1.097,3120
15.696,1.502,3120
15.700,1.708,3120
15.704,1.702,3126
15.708,1.472,3126
15.712,1.073,3126
15.716,0.557,3126
15.720,-0.025,3126
15.724,-0.655,3126
15.728,-1.292,3126
15.732,-1.840,3126
15.736,-2.212,3126
15.740,-2.400,3126
15.744,-2.382,3126
15.748,-2.183,3121
15.752,-1.782,3121
15.756,-1.258,3121
15.760,0.037,3121
15.764,0.630,3121
15.768,1.103,3121
15.772,1.498,3121
15.776,1.702,3121
15.780,1.698,3121
15.784,1.470,3125
15.788,1.055,3125
15.792,0.537,3125
15.796,-0.068,3125
15.800,-0.652,3125
15.804,-1.265,3125
15.808,-1.827,3125
15.812,-2.212,3125
15.816,-2.385,3125
15.820,-2.382,3125
15.824,-2.170,3112
15.828,-1.765,3112
15.832,-1.228,3112
15.836,-0.670,3112
15.840,0.667,3112
15.844,1.103,3112
15.848,1.490,3112
15.852,1.688,3112
15.856,1.663,3112
15.860,1.433,3102
15.864,1.012,3102
15.868,0.497,3102
15.872,-0.090,3102
15.876,-0.708,3102
15.880,-1.340,3102
15.884,-1.875,3102
15.888,-2.255,3102
15.892,-2.425,3102
15.896,-2.410,3102
15.900,-2.180,3125
15.904,-1.778,3125
15.908,-1.248,3125
15.912,-0.672,3125
15.916,-0.052,3125
15.920,1.208,3125
15.924,1.567,3125
15.928,1.705,3125
15.932,1.688,3125
15.936,1.458,3077
15.940,1.025,3077
15.944,0.512,3077
15.948,-0.068,3077
15.952,-0.688,3077
15.956,-1.323,3077
15.960,-1.863,3077
15.964,-2.225,3077
15.968,-2.413,3077
15.972,-2.382,3077
15.976,-2.172,3108
15.980,-1.768,3108
15.984,-1.230,3108
15.988,-0.680,3108
15.992,-0.062,3108
15.996,0.547,3108
16.000,1.508,3108
16.004,1.657,3108
16.008,1.590,3108
16.012,1.380,3120
16.016,0.960,3120
16.020,0.453,3120
16.024,-0.110,3120
16.028,-0.730,3120
16.032,-1.347,3120
16.036,-1.887,3120
16.040,-2.252,3120
16.044,-2.420,3120
16.048,-2.385,3120
16.052,-2.163,3126
16.056,-1.748,3126
16.060,-1.220,3126
16.064,-0.657,3126
16.068,-0.033,3126
16.072,0.578,3126
16.076,1.113,3126
16.080,1.677,3126
16.084,1.633,3126
16.088,1.397,3118
16.092,0.973,3118
16.096,0.438,3118
16.100,-0.138,3118
16.104,-0.762,3118
16.108,-1.387,3118
16.112,-1.927,3118
16.116,-2.283,3118
16.120,-2.447,3118
16.124,-2.415,3118
16.128,-2.183,3110
16.132,-1.772,3110
16.136,-1.232,3110
16.140,-0.657,3110
16.144,-0.033,3110
16.148,0.590,3110
16.152,1.137,3110
16.156,1.515,3110
16.160,1.653,3110
16.164,1.435,3127
16.168,1.015,3127
16.172,0.497,3127
16.176,-0.083,3127
16.180,-0.705,3127
16.184,-1.330,3127
16.188,-1.890,3127
16.192,-2.223,3127
16.196,-2.393,3127
16.200,-2.360,3127
16.204,-2.135,3115
16.208,-1.715,3115
16.212,-1.177,3115
16.216,-0.620,3115
16.220,-0.018,3115
16.224,0.598,3115
16.228,1.140,3115
16.232,1.508,3115
16.236,1.690,3115
16.240,1.357,3134
16.244,0.448,3134
16.248,-0.130,3134
16.252,-0.762,3134
16.256,-1.393,3134
16.260,-1.942,3134
16.264,-2.297,3134
16.268,-2.458,3134
16.272,-2.425,3134
16.276,-2.188,3148
16.280,-1.772,3148
16.284,-1.222,3148
16.288,-0.647,3148
16.292,-0.015,3148
16.296,0.618,3148
16.300,1.165,3148
16.304,1.532,3148
16.308,1.710,3148
16.312,1.675,3148
16.316,1.417,3127
16.320,0.365,3127
16.324,-0.133,3127
16.328,-0.780,3127
16.332,-1.403,3127
16.336,-1.945,3127
16.340,-2.303,3127
16.344,-2.462,3127
16.348,-2.422,3127
16.352,-2.183,3141
16.356,-1.768,3141
16.360,-1.228,3141
16.364,-0.655,3141
16.368,-0.028,3141
16.372,0.583,3141
16.376,1.117,3141
16.380,1.498,3141
16.384,1.663,3141
16.388,1.620,3141
16.392,1.380,3135
16.396,0.938,3135
16.400,-0.268,3135
16.404,-0.802,3135
16.408,-1.417,3135
16.412,-1.945,3135
16.416,-2.295,3135
16.420,-2.450,3135
16.424,-2.413,3135
16.428,-2.163,3136
16.432,-1.732,3136
16.436,-1.202,3136
16.440,-0.613,3136
16.444,0.020,3136
16.448,0.625,3136
16.452,1.153,3136
16.456,1.515,3136
16.460,1.677,3136
16.464,1.637,3136
16.468,1.387,3135
16.472,0.943,3135
16.476,0.425,3135
16.480,-0.892,3135
16.484,-1.403,3135
16.488,-1.938,3135
16.492,-2.290,3135
16.496,-2.442,3135
16.500,-2.380,3135
16.504,-2.132,3133
16.508,-1.698,3133
16.512,-1.165,3133
16.516,-0.583,3133
16.520,0.048,3133
16.524,0.657,3133
16.528,1.180,3133
16.532,1.540,3133
16.536,1.702,3133
16.540,1.657,3133
16.544,1.393,3129
16.548,0.943,3129
16.552,0.417,3129
16.556,-0.147,3129
16.560,-1.502,3129
16.564,-1.938,3129
16.568,-2.288,3129
16.572,-2.442,3129
16.576,-2.385,3129
16.580,-2.140,3132
16.584,-1.700,3132
16.588,-1.175,3132
16.592,-0.588,3132
16.596,0.062,3132
16.600,0.657,3132
16.604,1.177,3132
16.608,1.532,3132
16.612,1.698,3132
16.616,1.650,3132
16.620,1.393,3137
16.624,0.935,3137
16.628,0.407,3137
16.632,-0.168,3137
16.636,-0.805,3137
16.640,-2.022,3137
16.644,-2.303,3137
16.648,-2.445,3137
16.652,-2.382,3137
16.656,-2.127,3110
16.660,-1.698,3110
16.664,-1.167,3110
16.668,-0.583,3110
16.672,0.045,3110
16.676,0.662,3110
16.680,1.183,3110
16.684,1.532,3110
16.688,1.688,3110
16.692,1.627,3110
16.696,1.357,3126
16.700,0.902,3126
16.704,0.378,3126
16.708,-0.207,3126
16.712,-0.830,3126
16.716,-1.452,3126
16.720,-2.342,3126
16.724,-2.450,3126
16.728,-2.380,3126
16.732,-2.127,3126
16.736,-1.695,3119
16.740,-1.153,3119
16.744,-0.580,3119
16.748,0.052,3119
16.752,0.660,3119
16.756,1.180,3119
16.760,1.530,3119
16.764,1.688,3119
16.768,1.633,3119
16.772,1.370,3119
16.776,0.917,3121
16.780,0.378,3121
16.784,-0.193,3121
16.788,-0.843,3121
16.792,-1.452,3121
16.796,-1.975,3121
16.800,-2.428,3121
16.804,-2.348,3121
16.808,-2.020,3113
16.812,-1.077,3113
16.816,-0.545,3113
16.820,0.077,3113
16.824,0.685,3113
16.828,1.195,3113
16.832,1.545,3113
16.836,1.698,3113
16.840,1.627,3113
16.844,1.353,3113
16.848,0.902,3125
16.852,0.357,3125
16.856,-0.207,3125
16.860,-0.828,3125
16.864,-1.442,3125
16.868,-1.942,3125
16.872,-2.265,3125
16.876,-2.390,3125
16.880,-2.027,3107
16.884,-1.055,3107
16.888,-0.468,3107
16.892,0.220,3107
16.896,0.748,3107
16.900,1.218,3107
16.904,1.567,3107
16.908,1.718,3107
16.912,1.657,3107
16.916,1.383,3107
16.920,0.927,3125
16.924,0.383,3125
16.928,-0.205,3125
16.932,-0.840,3125
16.936,-1.462,3125
16.940,-1.982,3125
16.944,-2.310,3125
16.948,-2.447,3125
16.952,-2.373,3125
16.956,-2.065,3125
16.960,-1.025,3117
16.964,0.098,3117
16.968,0.708,3117
16.972,1.248,3117
16.976,1.558,3117
16.980,1.698,3117
16.984,1.627,3117
16.988,1.347,3117
16.992,0.905,3106
16.996,0.357,3106
17.000,-0.223,3106
17.004,-0.850,3106
17.008,-1.462,3106
17.012,-1.968,3106
17.016,-2.292,3106
17.020,-2.422,3106
17.024,-2.348,3106
17.028,-2.087,3106
17.032,-1.645,3077
17.036,-1.090,3077
17.040,0.217,3077
17.044,1.343,3077
17.048,1.577,3077
17.052,1.710,3077
17.056,1.633,3077
17.060,1.347,3077
17.064,0.897,3115
17.068,0.347,3115
17.072,-0.235,3115
17.076,-0.858,3115
17.080,-1.482,3115
17.084,-1.985,3115
17.088,-2.303,3115
17.092,-2.428,3115
17.096,-2.345,3115
17.100,-2.065,3115
17.104,-1.623,3119
17.108,-1.067,3119
17.112,-0.492,3119
17.116,0.130,3119
17.120,1.312,3119
17.124,1.558,3119
17.128,1.698,3119
17.132,1.617,3119
17.136,1.327,3119
17.140,0.863,3127
17.144,0.307,3127
17.148,-0.263,3127
17.152,-0.890,3127
17.156,-1.495,3127
17.160,-1.992,3127
17.164,-2.300,3127
17.168,-2.420,3127
17.172,-2.337,3127
17.176,-2.058,3127
17.180,-1.607,3134
17.184,-1.048,3134
17.188,-0.463,3134
17.192,0.158,3134
17.196,0.772,3134
17.200,1.637,3134
17.204,1.742,3134
17.208,1.645,3134
17.212,1.308,3134
17.216,0.887,3140
17.220,0.345,3140
17.224,-0.343,3140
17.228,-0.907,3140
17.232,-1.498,3140
17.236,-2.042,3140
17.240,-2.325,3140
17.244,-2.445,3140
17.248,-2.357,3140
17.252,-2.067,3140
17.256,-1.625,3120
17.260,-1.062,3120
17.264,-0.495,3120
17.268,0.133,3120
17.272,0.735,3120
17.276,1.238,3120
17.280,1.705,3120
17.284,1.585,3120
17.288,1.262,3120
17.292,0.873,3137
17.296,-0.323,3137
17.300,-0.882,3137
17.304,-1.492,3137
17.308,-2.002,3137
17.312,-2.310,3137
17.316,-2.433,3137
17.320,-2.340,3137
17.324,-2.060,3137
17.328,-1.617,3081
17.332,-1.052,3081
17.336,-0.448,3081
17.340,0.152,3081
17.344,0.757,3081
17.348,1.260,3081
17.352,1.583,3081
17.356,1.718,3081
17.360,1.270,3081
17.364,0.892,3148
17.368,0.333,3148
17.372,-0.253,3148
17.376,-0.882,3148
17.380,-1.498,3148
17.384,-1.990,3148
17.388,-2.303,3148
17.392,-2.420,3148
17.396,-2.333,3148
17.400,-2.053,3148
17.404,-1.603,3111
17.408,-1.048,3111
17.412,-0.485,3111
17.416,0.145,3111
17.420,0.743,3111
17.424,1.238,3111
17.428,1.567,3111
17.432,1.688,3111
17.436,1.587,3111
17.440,0.750,3132
17.444,-0.292,3132
17.448,-0.922,3132
17.452,-1.532,3132
17.456,-2.022,3132
17.460,-2.330,3132
17.464,-2.442,3132
17.468,-2.348,3132
17.472,-2.053,3132
17.476,-1.585,3137
17.480,-0.897,3137
17.484,-0.422,3137
17.488,0.195,3137
17.492,0.790,3137
17.496,1.302,3137
17.500,1.617,3137
17.504,1.730,3137
17.508,1.623,3137
17.512,1.327,3137
17.516,0.860,3118
17.520,-0.388,3118
17.524,-0.910,3118
17.528,-1.515,3118
17.532,-2.018,3118
17.536,-2.312,3118
17.540,-2.428,3118
17.544,-2.330,3118
17.548,-2.035,3118
17.552,-1.567,3121
17.556,-1.012,3121
17.560,-0.432,3121
17.564,0.193,3121
17.568,0.787,3121
17.572,1.272,3121
17.576,1.583,3121
17.580,1.700,3121
17.584,1.593,3121
17.588,1.310,3121
17.592,0.848,3111
17.596,0.275,3111
17.600,-1.042,3111
17.604,-1.548,3111
17.608,-2.042,3111
17.612,-2.348,3111
17.616,-2.453,3111
17.620,-2.348,3111
17.624,-2.047,3111
17.628,-1.603,3129
17.632,-1.028,3129
17.636,-0.445,3129
17.640,0.180,3129
17.644,0.772,3129
17.648,1.258,3129
17.652,1.558,3129
17.656,1.673,3129
17.660,1.573,3129
17.664,1.272,3129
17.668,0.833,3127
17.672,0.285,3127
17.676,-0.297,3127
17.680,-1.633,3127
17.684,-2.337,3127
17.688,-2.428,3127
17.692,-2.328,3127
17.696,-2.033,3127
17.700,-1.575,3127
17.704,-1.028,3113
17.708,-0.432,3113
17.712,0.180,3113
17.716,0.823,3113
17.720,1.272,3113
17.724,1.587,3113
17.728,1.708,3113
17.732,1.587,3113
17.736,1.298,3113
17.740,0.797,3116
17.744,0.258,3116
17.748,-0.333,3116
17.752,-0.968,3116
17.756,-1.562,3116
17.760,-2.353,3116
17.764,-2.417,3116
17.768,-2.292,3116
17.772,-1.995,3116
17.776,-1.538,3116
17.780,-0.988,3122
17.784,-0.393,3122
17.788,0.223,3122
17.792,0.818,3122
17.796,1.302,3122
17.800,1.585,3122
17.804,1.692,3122
17.808,1.580,3122
17.812,1.262,3122
17.816,0.785,3122
17.820,0.233,3130
17.824,-0.362,3130
17.828,-1.002,3130
17.832,-1.600,3130
17.836,-2.060,3130
17.840,-2.430,3130
17.844,-2.328,3130
17.848,-2.013,3130
17.852,-1.542,3130
17.856,-0.983,3105
17.860,-0.378,3105
17.864,0.247,3105
17.868,0.835,3105
17.872,1.323,3105
17.876,1.613,3105
17.880,1.705,3105
17.884,1.583,3105
17.888,1.262,3105
17.892,0.797,3105
17.896,0.247,3111
17.900,-0.362,3111
17.904,-0.993,3111
17.908,-1.605,3111
17.912,-2.083,3111
17.916,-2.353,3111
17.920,-2.288,3111
17.924,-2.013,3111
17.928,-1.540,3111
17.932,-0.988,3127
17.936,-0.388,3127
17.940,0.237,3127
17.944,0.843,3127
17.948,1.327,3127
17.952,1.623,3127
17.956,1.718,3127
17.960,1.597,3127
17.964,1.272,3127
17.968,0.795,3127
17.972,0.247,3122
17.976,-0.372,3122
17.980,-0.988,3122
17.984,-1.600,3122
17.988,-2.062,3122
17.992,-2.335,3122
17.996,-2.425,3122
18.000,-1.942,3122
18.004,-1.500,3122
18.008,-0.897,3115
18.012,-0.343,3115
18.016,0.278,3115
18.020,0.868,3115
18.024,1.347,3115
18.028,1.635,3115
18.032,1.718,3115
18.036,1.593,3115
18.040,1.260,3115
18.044,0.782,3115
18.048,0.225,3111
18.052,-0.383,3111
18.056,-1.015,3111
18.060,-1.615,3111
18.064,-2.087,3111
18.068,-2.353,3111
18.072,-2.445,3111
18.076,-2.325,3111
18.080,-1.452,3111
18.084,-0.973,3141
18.088,-0.367,3141
18.092,0.253,3141
18.096,0.863,3141
18.100,1.345,3141
18.104,1.633,3141
18.108,1.728,3141
18.112,1.595,3141
18.116,1.270,3141
18.120,0.787,3141
18.124,0.233,3108
18.128,-0.372,3108
18.132,-1.025,3108
18.136,-1.613,3108
18.140,-2.083,3108
18.144,-2.353,3108
18.148,-2.438,3108
18.152,-2.322,3108
18.156,-2.007,3108
18.160,-0.873,3120
18.164,0.260,3120
18.168,0.858,3120
18.172,1.345,3120
18.176,1.620,3120
18.180,1.708,3120
18.184,1.560,3120
18.188,1.232,3120
18.192,0.772,3120
18.196,0.203,3129
18.200,-0.407,3129
18.204,-1.028,3129
18.208,-1.627,3129
18.212,-2.095,3129
18.216,-2.355,3129
18.220,-2.442,3129
18.224,-2.308,3129
18.228,-1.990,3129
18.232,-1.512,3129
18.236,-0.948,3131
18.240,0.380,3131
18.244,1.058,3131
18.248,1.367,3131
18.252,1.633,3131
18.256,1.718,3131
18.260,1.577,3131
18.264,1.238,3131
18.268,0.755,3131
18.272,0.198,3134
18.276,-0.422,3134
18.280,-1.060,3134
18.284,-1.655,3134
18.288,-2.123,3134
18.292,-2.382,3134
18.296,-2.460,3134
18.300,-2.322,3134
18.304,-1.982,3134
18.308,-1.502,3134
18.312,-0.930,3138
18.316,-0.330,3138
18.320,0.995,3138
18.324,1.397,3138
18.328,1.688,3138
18.332,1.728,3138
18.336,1.570,3138
18.340,1.238,3138
18.344,0.703,3138
18.348,0.198,3137
18.352,-0.417,3137
18.356,-1.032,3137
18.360,-1.633,3137
18.364,-2.095,3137
18.368,-2.357,3137
18.372,-2.430,3137
18.376,-2.305,3137
18.380,-1.978,3137
18.384,-1.498,3137
18.388,-0.927,3122
18.392,-0.338,3122
18.396,0.287,3122
18.400,1.393,3122
18.404,1.613,3122
18.408,1.675,3122
18.412,1.528,3122
18.416,1.185,3122
18.420,0.703,3122
18.424,0.150,3138
18.428,-0.458,3138
18.432,-1.073,3138
18.436,-1.660,3138
18.440,-2.110,3138
18.444,-2.373,3138
18.448,-2.433,3138
18.452,-2.300,3138
18.456,-1.972,3138
18.460,-1.490,3138
18.464,-0.922,3105
18.468,-0.330,3105
18.472,0.292,3105
18.476,0.887,3105
18.480,1.637,3105
18.484,1.688,3105
18.488,1.542,3105
18.492,1.180,3105
18.496,0.718,3105
18.500,0.158,3123
18.504,-0.460,3123
18.508,-1.067,3123
18.512,-1.655,3123
18.516,-2.112,3123
18.520,-2.353,3123
18.524,-2.417,3123
18.528,-2.268,3123
18.532,-1.933,3123
18.536,-1.448,3123
18.540,-0.873,3138
18.544,-0.273,3138
18.548,0.352,3138
18.552,0.917,3138
18.556,1.383,3138
18.560,1.700,3138
18.564,1.555,3138
18.568,1.215,3138
18.572,0.728,3138
18.576,0.177,3136
18.580,-0.443,3136
18.584,-1.067,3136
18.588,-1.665,3136
18.592,-2.127,3136
18.596,-2.382,3136
18.600,-2.450,3136
18.604,-2.303,3136
18.608,-1.968,3136
18.612,-1.472,3136
18.616,-0.905,3135
18.620,-0.297,3135
18.624,0.312,3135
18.628,0.902,3135
18.632,1.370,3135
18.636,1.635,3135
18.640,1.492,3135
18.644,1.183,3135
18.648,0.708,3135
18.652,0.142,3123
18.656,-0.485,3123
18.660,-1.097,3123
18.664,-1.685,3123
18.668,-2.127,3123
18.672,-2.370,3123
18.676,-2.428,3123
18.680,-2.283,3123
18.684,-1.948,3123
18.688,-1.458,3123
18.692,-0.897,3123
18.696,-0.302,3092
18.700,0.340,3092
18.704,0.907,3092
18.708,1.373,3092
18.712,1.633,3092
18.716,1.695,3092
18.720,1.107,3092
18.724,0.632,3092
18.728,-0.043,3122
18.732,-1.153,3122
18.736,-1.698,3122
18.740,-2.138,3122
18.744,-2.380,3122
18.748,-2.440,3122
18.752,-2.283,3122
18.756,-1.933,3122
18.760,-1.427,3122
18.764,-0.865,3122
18.768,-0.253,3127
18.772,0.388,3127
18.776,0.955,3127
18.780,1.417,3127
18.784,1.667,3127
18.788,1.718,3127
18.792,1.548,3127
18.796,1.190,3127
18.800,0.037,3077
18.804,-1.312,3077
18.808,-1.775,3077
18.812,-2.203,3077
18.816,-2.410,3077
18.820,-2.453,3077
18.824,-2.295,3077
18.828,-1.938,3077
18.832,-1.427,3077
18.836,-0.863,3077
18.840,-0.260,3118
18.844,0.380,3118
18.848,0.975,3118
18.852,1.415,3118
18.856,1.670,3118
18.860,1.725,3118
18.864,1.555,3118
18.868,1.188,3118
18.872,0.695,3118
18.876,0.075,3118
18.880,-1.210,3104
18.884,-2.163,3104
18.888,-2.368,3104
18.892,-2.413,3104
18.896,-2.245,3104
18.900,-1.890,3104
18.904,-1.390,3104
18.908,-0.820,3104
18.912,-0.223,3113
18.916,0.417,3113
18.920,0.983,3113
18.924,1.417,3113
18.928,1.660,3113
18.932,1.702,3113
18.936,1.532,3113
18.940,1.167,3113
18.944,0.665,3113
18.948,0.098,3113
18.952,-0.512,3100
18.956,-1.145,3100
18.960,-2.200,3100
18.964,-2.382,3100
18.968,-2.428,3100
18.972,-2.275,3100
18.976,-1.927,3100
18.980,-1.427,3100
18.984,-0.863,3100
18.988,-0.270,3111
18.992,0.367,3111
18.996,0.927,3111
19.000,1.373,3111
19.004,1.617,3111
19.008,1.670,3111
19.012,1.505,3111
19.016,1.145,3111
19.020,0.662,3111
19.024,0.098,3111
19.028,-0.522,3120
19.032,-1.160,3120
19.036,-1.728,3120
19.040,-2.413,3120
19.044,-2.430,3120
19.048,-2.263,3120
19.052,-1.903,3120
19.056,-1.403,3120
19.060,-0.840,3120
19.064,-0.225,3120
19.068,0.410,3120
19.072,0.975,3120
19.076,1.410,3120
19.080,1.657,3120
19.084,1.700,3120
19.088,1.518,3120
19.092,1.157,3120
19.096,0.662,3120
19.100,0.102,3120
19.104,-0.507,3124
19.108,-1.153,3124
19.112,-1.712,3124
19.116,-2.143,3124
19.120,-2.382,3124
19.124,-2.223,3124
19.128,-1.857,3124
19.132,-1.353,3124
19.136,-0.777,3124
19.140,-0.177,3136
19.144,0.460,3136
19.148,1.032,3136
19.152,1.470,3136
19.156,1.705,3136
19.160,1.738,3136
19.164,1.552,3136
19.168,1.177,3136
19.172,0.667,3136
19.176,0.095,3136
19.180,-0.522,3136
19.184,-1.167,3136
19.188,-1.738,3136
19.192,-2.172,3136
19.196,-2.402,3136
19.200,-2.205,3136
19.204,-1.887,3136
19.208,-1.380,3136
19.212,-0.807,3136
19.216,-0.188,3139
19.220,0.448,3139
19.224,1.012,3139
19.228,1.435,3139
19.232,1.667,3139
19.236,1.702,3139
19.240,1.510,3139
19.244,1.140,3139
19.248,0.627,3139
19.252,0.068,3139
19.256,-0.550,3131
19.260,-1.192,3131
19.264,-1.800,3131
19.268,-2.180,3131
19.272,-2.388,3131
19.276,-2.422,3131
19.280,-1.810,3131
19.284,-0.708,3131
19.288,-0.205,3142
19.292,0.435,3142
19.296,1.012,3142
19.300,1.430,3142
19.304,1.660,3142
19.308,1.692,3142
19.312,1.498,3142
19.316,1.113,3142
19.320,0.618,3142
19.324,0.060,3142
19.328,-0.562,3127
19.332,-1.202,3127
19.336,-1.780,3127
19.340,-2.183,3127
19.344,-2.408,3127
19.348,-2.425,3127
19.352,-2.245,3127
19.356,-1.873,3127
19.360,-0.698,3127
19.364,-0.177,3126
19.368,0.463,3126
19.372,1.028,3126
19.376,1.458,3126
19.380,1.692,3126
19.384,1.715,3126
19.388,1.528,3126
19.392,1.143,3126
19.396,0.630,3126
19.400,0.077,3126
19.404,-0.535,3126
19.408,-1.177,3126
19.412,-1.740,3126
19.416,-2.170,3126
19.420,-2.385,3126
19.424,-2.422,3126
19.428,-2.248,3126
19.432,-1.873,3126
19.436,-1.373,3126
19.440,-0.072,3125
19.444,1.032,3125
19.448,1.455,3125
19.452,1.673,3125
19.456,1.692,3125
19.460,1.495,3125
19.464,1.107,3125
19.468,0.598,3125
19.472,0.043,3125
19.476,-0.578,3126
19.480,-1.212,3126
19.484,-1.782,3126
19.488,-2.183,3126
19.492,-2.402,3126
19.496,-2.422,3126
19.500,-2.223,3126
19.504,-1.853,3126
19.508,-1.340,3126
19.512,-0.752,3126
19.516,-0.147,3112
19.520,1.107,3112
19.524,1.452,3112
19.528,1.670,3112
19.532,1.677,3112
19.536,1.492,3112
19.540,1.100,3112
19.544,0.588,3112
19.548,0.030,3112
19.552,-0.608,3124
19.556,-1.242,3124
19.560,-1.812,3124
19.564,-2.212,3124
19.568,-2.428,3124
19.572,-2.442,3124
19.576,-2.252,3124
19.580,-1.867,3124
19.584,-1.353,3124
19.588,-0.775,3124
19.592,-0.177,3127
19.596,0.458,3127
19.600,1.472,3127
19.604,1.637,3127
19.608,1.657,3127
19.612,1.462,3127
19.616,1.067,3127
19.620,0.568,3127
19.624,0.013,3127
19.628,-0.608,3126
19.632,-1.235,3126
19.636,-1.792,3126
19.640,-2.192,3126
19.644,-2.408,3126
19.648,-2.408,3126
19.652,-2.212,3126
19.656,-1.843,3126
19.660,-1.327,3126
19.664,-0.743,3126
19.668,-0.113,3128
19.672,0.507,3128
19.676,1.058,3128
19.680,1.710,3128
19.684,1.708,3128
19.688,1.502,3128
19.692,1.107,3128
19.696,0.593,3128
19.700,0.037,3128
19.704,-0.585,3128
19.708,-1.220,3125
19.712,-1.795,3125
19.716,-2.183,3125
19.720,-2.385,3125
19.724,-2.402,3125
19.728,-2.192,3125
19.732,-1.817,3125
19.736,-1.298,3125
19.740,-0.713,3125
19.744,-0.102,3125
19.748,0.527,3129
19.752,1.087,3129
19.756,1.490,3129
19.760,1.690,3129
19.764,1.508,3129
19.768,1.105,3129
19.772,0.585,3129
19.776,0.020,3129
19.780,-0.613,3129
19.784,-1.248,3125
19.788,-1.827,3125
19.792,-2.212,3125
19.796,-2.410,3125
19.800,-2.408,3125
19.804,-2.197,3125
19.808,-1.815,3125
19.812,-1.302,3125
19.816,-0.710,3125
19.820,-0.105,3125
19.824,0.517,3073
19.828,1.077,3073
19.832,1.488,3073
19.836,1.695,3073
19.840,1.423,3073
19.844,0.990,3073
19.848,0.407,3073
19.852,-0.025,3073
19.856,-0.623,3073
19.860,-1.248,3113
19.864,-1.815,3113
19.868,-2.208,3113
19.872,-2.393,3113
19.876,-2.402,3113
19.880,-2.192,3113
19.884,-1.805,3113
19.888,-1.292,3113
19.892,-0.710,3113
19.896,-0.107,3113
19.900,0.525,3116
19.904,1.073,3116
19.908,1.472,3116
19.912,1.673,3116
19.916,1.673,3116
19.920,0.983,3116
19.924,0.535,3116
19.928,-0.048,3116
19.932,-0.652,3116
19.936,-1.268,3112
19.940,-1.843,3112
19.944,-2.208,3112
19.948,-2.402,3112
19.952,-2.390,3112
19.956,-2.185,3112
19.960,-1.808,3112
19.964,-1.292,3112
19.968,-0.723,3112
19.972,-0.110,3112
19.976,0.507,3106
19.980,1.062,3106
19.984,1.450,3106
19.988,1.653,3106
19.992,1.650,3106
19.996,1.433,3106
20.000,0.432,3106
20.004,-0.055,3106
20.008,-0.675,3106
20.012,-1.310,3113
20.016,-1.873,3113
20.020,-2.252,3113
20.024,-2.428,3113
20.028,-2.420,3113
20.032,-2.203,3113
20.036,-1.778,3113
20.040,-1.268,3113
20.044,-0.700,3113
20.048,-0.100,3113
20.052,0.517,3125
20.056,1.073,3125
20.060,1.475,3125
20.064,1.667,3125
20.068,1.660,3125
20.072,1.438,3125
20.076,1.050,3125
20.080,-0.133,3125
20.084,-1.337,3131
20.088,-1.840,3131
20.092,-2.212,3131
20.096,-2.408,3131
20.100,-2.388,3131
20.104,-2.185,3131
20.108,-1.808,3131
20.112,-1.262,3131
20.116,-0.703,3131
20.120,-0.092,3131
20.124,0.527,3123
20.128,1.073,3123
20.132,1.470,3123
20.136,1.667,3123
20.140,1.653,3123
20.144,1.425,3123
20.148,1.025,3123
20.152,0.512,3123
20.156,-0.058,3123
20.160,-1.393,3137
20.164,-2.223,3137
20.168,-2.413,3137
20.172,-2.393,3137
20.176,-2.178,3137
20.180,-1.782,3137
20.184,-1.252,3137
20.188,-0.688,3137
20.192,-0.072,3137
20.196,0.552,3137
20.200,1.103,3137
20.204,1.490,3137
20.208,1.677,3137
20.212,1.663,3137
20.216,1.433,3137
20.220,1.022,3137
20.224,0.495,3137
20.228,-0.087,3137
20.232,-0.708,3137
20.236,-1.337,3129
20.240,-2.328,3129
20.244,-2.428,3129
20.248,-2.417,3129
20.252,-2.183,3129
20.256,-1.760,3129
20.260,-1.238,3129
20.264,-0.613,3129
20.268,-0.052,3129
20.272,0.580,3140
20.276,1.140,3140
20.280,1.530,3140
20.284,1.728,3140
20.288,1.700,3140
20.292,1.462,3140
20.296,1.038,3140
20.300,0.507,3140
20.304,-0.070,3140
20.308,-0.708,3140
20.312,-1.343,3137
20.316,-1.903,3137
20.320,-2.447,3137
20.324,-2.413,3137
20.328,-2.188,3137
20.332,-1.792,3137
20.336,-1.252,3137
20.340,-0.693,3137
20.344,-0.072,3137
20.348,0.555,3149
20.352,1.107,3149
20.356,1.492,3149
20.360,1.673,3149
20.364,1.653,3149
20.368,1.423,3149
20.372,1.018,3149
20.376,0.500,3149
20.380,-0.072,3149
20.384,-0.698,3149
20.388,-1.327,3114
20.392,-1.863,3114
20.396,-2.225,3114
20.400,-2.377,3114
20.404,-2.127,3114
20.408,-1.762,3114
20.412,-1.220,3114
20.416,-0.620,3114
20.420,-0.040,3114
20.424,0.580,3127
20.428,1.113,3127
20.432,1.495,3127
20.436,1.675,3127
20.440,1.657,3127
20.444,1.423,3127
20.448,1.002,3127
20.452,0.472,3127
20.456,-0.095,3127
20.460,-0.723,3127
20.464,-1.350,3133
20.468,-1.905,3133
20.472,-2.268,3133
20.476,-2.433,3133
20.480,-2.120,3133
20.484,-1.772,3133
20.488,-1.230,3133
20.492,-0.662,3133
20.496,-0.033,3133
20.500,0.588,3119
20.504,1.137,3119
20.508,1.502,3119
20.512,1.690,3119
20.516,1.657,3119
20.520,1.413,3119
20.524,1.005,3119
20.528,0.468,3119
20.532,-0.105,3119
20.536,-0.728,3119
20.540,-1.365,3117
20.544,-1.933,3117
20.548,-2.292,3117
20.552,-2.458,3117
20.556,-2.428,3117
20.560,-1.695,3117
20.564,-1.147,3117
20.568,-0.652,3117
20.572,0.022,3117
20.576,0.583,3120
20.580,1.117,3120
20.584,1.505,3120
20.588,1.677,3120
20.592,1.657,3120
20.596,1.407,3120
20.600,0.983,3120
20.604,0.453,3120
20.608,-0.130,3120
20.612,-0.748,3120
20.616,-1.385,3138
20.620,-1.933,3138
20.624,-2.288,3138
20.628,-2.442,3138
20.632,-2.410,3138
20.636,-2.167,3138
20.640,-1.010,3138
20.644,-0.512,3138
20.648,0.037,3138
20.652,0.777,3132
20.656,1.532,3132
20.660,1.708,3132
20.664,1.657,3132
20.668,1.417,3132
20.672,0.995,3132
20.676,0.460,3132
20.680,-0.113,3132
20.684,-0.740,3132
20.688,-1.373,3132
20.692,-1.905,3130
20.696,-2.272,3130
20.700,-2.422,3130
20.704,-2.382,3130
20.708,-2.147,3130
20.712,-1.732,3130
20.716,-1.192,3130
20.720,0.090,3130
20.724,0.690,3103
20.728,1.532,3103
20.732,1.677,3103
20.736,1.637,3103
20.740,1.395,3103
20.744,0.973,3103
20.748,0.427,3103
20.752,-0.142,3103
20.756,-0.772,3103
20.760,-1.410,3103
20.764,-1.940,3132
20.768,-2.283,3132
20.772,-2.447,3132
20.776,-2.410,3132
20.780,-2.163,3132
20.784,-1.740,3132
20.788,-1.188,3132
20.792,-0.610,3132
20.796,0.022,3132
20.800,1.232,3094
20.804,1.698,3094
20.808,1.647,3094
20.812,1.393,3094
20.816,0.927,3094
20.820,0.412,3094
20.824,-0.163,3094
20.828,-0.782,3094
20.832,-1.415,3094
20.836,-1.948,3122
20.840,-2.295,3122
20.844,-2.442,3122
20.848,-2.388,3122
20.852,-2.143,3122
20.856,-1.712,3122
20.860,-1.180,3122
20.864,-0.605,3122
20.868,0.028,3122
20.872,0.632,3122
20.876,1.173,3104
20.880,1.708,3104
20.884,1.655,3104
20.888,1.390,3104
20.892,0.955,3104
20.896,0.422,3104
20.900,-0.150,3104
20.904,-0.782,3104
20.908,-1.397,3104
20.912,-1.938,3102
20.916,-2.283,3102
20.920,-2.430,3102
20.924,-2.380,3102
20.928,-2.138,3102
20.932,-1.708,3102
20.936,-1.170,3102
20.940,-0.588,3102
20.944,0.045,3102
20.948,0.657,3102
20.952,1.180,3112
20.956,1.540,3112
20.960,1.620,3112
20.964,1.387,3112
20.968,0.943,3112
20.972,0.410,3112
20.976,-0.163,3112
20.980,-0.802,3112
20.984,-1.417,3112
20.988,-1.942,3116
20.992,-2.288,3116
20.996,-2.425,3116
21.000,-2.368,3116
21.004,-2.110,3116
21.008,-1.670,3116
21.012,-1.107,3116
21.016,-0.535,3116
21.020,0.098,3116
21.024,0.703,3116
21.028,1.218,3109
21.032,1.577,3109
21.036,1.728,3109
21.040,1.353,3109
21.044,0.958,3109
21.048,0.422,3109
21.052,-0.168,3109
21.056,-0.812,3109
21.060,-1.427,3109
21.064,-1.972,3123
21.068,-2.312,3123
21.072,-2.453,3123
21.076,-2.388,3123
21.080,-2.135,3123
21.084,-1.698,3123
21.088,-1.147,3123
21.092,-0.562,3123
21.096,0.072,3123
21.100,0.693,3123
21.104,1.212,3134
21.108,1.565,3134
21.112,1.712,3134
21.116,1.657,3134
21.120,0.858,3134
21.124,0.292,3134
21.128,-0.210,3134
21.132,-0.807,3134
21.136,-1.440,3134
21.140,-1.962,3131
21.144,-2.303,3131
21.148,-2.442,3131
21.152,-2.377,3131
21.156,-2.123,3131
21.160,-1.683,3131
21.164,-1.137,3131
21.168,-0.562,3131
21.172,0.065,3131
21.176,0.670,3131
21.180,1.188,3138
21.184,1.542,3138
21.188,1.700,3138
21.192,1.630,3138
21.196,1.357,3138
21.200,0.270,3138
21.204,-0.223,3138
21.208,-0.887,3138
21.212,-1.468,3138
21.216,-1.982,3125
21.220,-2.312,3125
21.224,-2.442,3125
21.228,-2.368,3125
21.232,-2.107,3125
21.236,-1.670,3125
21.240,-1.123,3125
21.244,-0.395,3125
21.248,0.077,3125
21.252,0.685,3125
21.256,1.188,3137
21.260,1.532,3137
21.264,1.673,3137
21.268,1.613,3137
21.272,1.343,3137
21.276,0.902,3137
21.280,-0.302,3137
21.284,-0.843,3137
21.288,-1.462,3137
21.292,-1.982,3151
21.296,-2.330,3151
21.300,-2.458,3151
21.304,-2.408,3151
21.308,-2.147,3151
21.312,-1.708,3151
21.316,-1.163,3151
21.320,-0.570,3151
21.324,0.068,3151
21.328,0.682,3151
21.332,1.212,3145
21.336,1.567,3145
21.340,1.718,3145
21.344,1.663,3145
21.348,1.387,3145
21.352,0.932,3145
21.356,0.393,3145
21.360,-0.927,3145
21.364,-1.448,3145
21.368,-1.955,3141
21.372,-2.292,3141
21.376,-2.420,3141
21.380,-2.353,3141
21.384,-2.092,3141
21.388,-1.653,3141
21.392,-1.103,3141
21.396,-0.532,3141
21.400,0.092,3141
21.404,0.703,3141
21.408,1.220,3133
21.412,1.552,3133
21.416,1.700,3133
21.420,1.630,3133
21.424,1.367,3133
21.428,0.912,3133
21.432,0.380,3133
21.436,-0.212,3133
21.440,-1.548,3133
21.444,-1.965,3129
21.448,-2.295,3129
21.452,-2.428,3129
21.456,-2.365,3129
21.460,-2.105,3129
21.464,-1.670,3129
21.468,-1.137,3129
21.472,-0.568,3129
21.476,0.068,3129
21.480,0.672,3129
21.484,1.180,3123
21.488,1.512,3123
21.492,1.657,3123
21.496,1.583,3123
21.500,1.312,3123
21.504,0.860,3123
21.508,0.312,3123
21.512,-0.258,3123
21.516,-0.885,3123
21.520,-2.058,3123
21.524,-2.442,3123
21.528,-2.362,3123
21.532,-2.087,3123
21.536,-1.635,3123
21.540,-1.087,3123
21.544,-0.507,3123
21.548,0.117,3123
21.552,0.733,3123
21.556,1.232,3128
21.560,1.577,3128
21.564,1.712,3128
21.568,1.633,3128
21.572,1.333,3128
21.576,0.892,3128
21.580,0.345,3128
21.584,-0.247,3128
21.588,-0.873,3128
21.592,-1.472,3128
21.596,-1.972,3133
21.600,-2.422,3133
21.604,-2.348,3133
21.608,-2.083,3133
21.612,-1.635,3133
21.616,-1.085,3133
21.620,-0.497,3133
21.624,0.133,3133
21.628,0.740,3133
21.632,1.255,3126
21.636,1.577,3126
21.640,1.708,3126
21.644,1.625,3126
21.648,1.330,3126
21.652,0.860,3126
21.656,0.307,3126
21.660,-0.270,3126
21.664,-0.907,3126
21.668,-1.522,3126
21.672,-2.010,3126
21.676,-2.312,3117
21.680,-2.292,3117
21.684,-2.053,3117
21.688,-1.613,3117
21.692,-1.058,3117
21.696,-0.463,3117
21.700,0.147,3117
21.704,0.752,3117
21.708,1.252,3117
21.712,1.567,3122
21.716,1.702,3122
21.720,1.617,3122
21.724,1.325,3122
21.728,0.863,3122
21.732,0.305,3122
21.736,-0.282,3122
21.740,-0.912,3122
21.744,-1.530,3122
21.748,-2.030,3122
21.752,-2.342,3110
21.756,-2.455,3110
21.760,-1.995,3110
21.764,-1.613,3110
21.768,-1.050,3110
21.772,-0.455,3110
21.776,0.172,3110
21.780,0.775,3110
21.784,1.272,3110
21.788,1.593,3124
21.792,1.712,3124
21.796,1.625,3124
21.800,1.330,3124
21.804,0.863,3124
21.808,0.302,3124
21.812,-0.278,3124
21.816,-0.927,3124
21.820,-1.538,3124
21.824,-2.033,3124
21.828,-2.345,3119
21.832,-2.467,3119
21.836,-2.380,3119
21.840,-1.550,3119
21.844,-1.085,3119
21.848,-0.500,3119
21.852,0.138,3119
21.856,0.752,3119
21.860,1.258,3119
21.864,1.583,3111
21.868,1.712,3111
21.872,1.617,3111
21.876,1.323,3111
21.880,0.855,3111
21.884,0.292,3111
21.888,-0.297,3111
21.892,-0.938,3111
21.896,-1.555,3111
21.900,-2.042,3111
21.904,-2.335,3089
21.908,-2.447,3089
21.912,-2.348,3089
21.916,-2.053,3089
21.920,-0.938,3089
21.924,-0.453,3089
21.928,0.180,3089
21.932,0.770,3089
21.936,1.268,3089
21.940,1.583,3105
21.944,1.708,3105
21.948,1.617,3105
21.952,1.323,3105
21.956,0.858,3105
21.960,0.307,3105
21.964,-0.323,3105
21.968,-0.922,3105
21.972,-1.528,3105
21.976,-2.018,3105
21.980,-2.320,3121
21.984,-2.428,3121
21.988,-2.328,3121
21.992,-2.045,3121
21.996,-1.585,3121
22.000,-0.362,3121
22.004,0.168,3121
22.008,0.777,3121
22.012,1.262,3121
22.016,1.573,3102
22.020,1.695,3102
22.024,1.577,3102
22.028,1.262,3102
22.032,0.812,3102
22.036,0.258,3102
22.040,-0.340,3102
22.044,-0.965,3102
22.048,-1.567,3102
22.052,-2.053,3102
22.056,-2.345,3113
22.060,-2.442,3113
22.064,-2.337,3113
22.068,-2.027,3113
22.072,-1.560,3113
22.076,-1.010,3113
22.080,0.302,3113
22.084,0.795,3113
22.088,1.300,3113
22.092,1.597,3121
22.096,1.708,3121
22.100,1.590,3121
22.104,1.292,3121
22.108,0.797,3121
22.112,0.253,3121
22.116,-0.333,3121
22.120,-0.973,3121
22.124,-1.555,3121
22.128,-2.033,3121
22.132,-2.328,3141
22.136,-2.422,3141
22.140,-2.308,3141
22.144,-2.010,3141
22.148,-1.545,3141
22.152,-1.002,3141
22.156,-0.410,3141
22.160,0.910,3141
22.164,1.323,3141
22.168,1.625,3144
22.172,1.728,3144
22.176,1.617,3144
22.180,1.298,3144
22.184,0.823,3144
22.188,0.263,3144
22.192,-0.338,3144
22.196,-0.983,3144
22.200,-1.583,3144
22.204,-2.067,3144
22.208,-2.357,3151
22.212,-2.453,3151
22.216,-2.340,3151
22.220,-2.033,3151
22.224,-1.567,3151
22.228,-1.008,3151
22.232,-0.417,3151
22.236,0.212,3151
22.240,1.367,3151
22.244,1.590,3096
22.248,1.700,3096
22.252,1.577,3096
22.256,1.262,3096
22.260,0.792,3096
22.264,0.258,3096
22.268,-0.340,3096
22.272,-0.975,3096
22.276,-1.577,3096
22.280,-2.062,3096
22.284,-2.353,3112
22.288,-2.447,3112
22.292,-2.330,3112
22.296,-2.025,3112
22.300,-1.562,3112
22.304,-1.012,3112
22.308,-0.412,3112
22.312,0.215,3112
22.316,0.833,3112
22.320,1.663,3137
22.324,1.615,3137
22.328,1.302,3137
22.332,0.825,3137
22.336,0.270,3137
22.340,-0.333,3137
22.344,-0.975,3137
22.348,-1.615,3137
22.352,-2.050,3137
22.356,-2.328,3136
22.360,-2.425,3136
22.364,-2.310,3136
22.368,-2.010,3136
22.372,-1.520,3136
22.376,-0.978,3136
22.380,-0.388,3136
22.384,0.247,3136
22.388,0.850,3136
22.392,1.335,3136
22.396,1.627,3144
22.400,1.550,3144
22.404,1.265,3144
22.408,0.787,3144
22.412,0.237,3144
22.416,-0.362,3144
22.420,-1.002,3144
22.424,-1.613,3144
22.428,-2.087,3144
22.432,-2.370,3137
22.436,-2.467,3137
22.440,-2.342,3137
22.444,-2.033,3137
22.448,-1.555,3137
22.452,-1.002,3137
22.456,-0.403,3137
22.460,0.233,3137
22.464,0.830,3137
22.468,1.327,3137
22.472,1.617,3114
22.476,1.698,3114
22.480,1.177,3114
22.484,0.772,3114
22.488,0.230,3114
22.492,-0.350,3114
22.496,-0.978,3114
22.500,-1.570,3114
22.504,-2.038,3114
22.508,-2.325,3127
22.512,-2.422,3127
22.516,-2.305,3127
22.520,-1.990,3127
22.524,-1.528,3127
22.528,-0.968,3127
22.532,-0.372,3127
22.536,0.260,3127
22.540,0.858,3127
22.544,1.345,3127
22.548,1.637,3083
22.552,1.732,3083
22.556,1.593,3083
22.560,0.703,3083
22.564,0.142,3083
22.568,-0.393,3083
22.572,-1.060,3083
22.576,-1.623,3083
22.580,-2.100,3083
22.584,-2.385,3118
22.588,-2.465,3118
22.592,-2.342,3118
22.596,-2.027,3118
22.600,-1.548,3118
22.604,-1.000,3118
22.608,-0.403,3118
22.612,0.228,3118
22.616,0.828,3118
22.620,1.317,3118
22.624,1.593,3113
22.628,1.695,3113
22.632,1.567,3113
22.636,1.240,3113
22.640,0.142,3113
22.644,-0.362,3113
22.648,-0.990,3113
22.652,-1.600,3113
22.656,-2.053,3113
22.660,-2.333,3107
22.664,-2.425,3107
22.668,-2.297,3107
22.672,-1.972,3107
22.676,-1.498,3107
22.680,-0.932,3107
22.684,-0.347,3107
22.688,0.285,3107
22.692,0.875,3107
22.696,1.353,3107
22.700,1.623,3107
22.704,1.695,3099
22.708,1.545,3099
22.712,1.210,3099
22.716,0.728,3099
22.720,-0.537,3099
22.724,-1.062,3099
22.728,-1.663,3099
22.732,-2.123,3099
22.736,-2.377,3105
22.740,-2.447,3105
22.744,-2.308,3105
22.748,-1.978,3105
22.752,-1.490,3105
22.756,-0.907,3105
22.760,-0.268,3105
22.764,0.338,3105
22.768,0.902,3105
22.772,1.373,3105
22.776,1.635,3105
22.780,1.705,3116
22.784,1.552,3116
22.788,1.225,3116
22.792,0.743,3116
22.796,0.188,3116
22.800,-1.150,3116
22.804,-1.650,3116
22.808,-2.107,3116
22.812,-2.373,3116
22.816,-2.447,3125
22.820,-2.303,3125
22.824,-1.982,3125
22.828,-1.505,3125
22.832,-0.932,3125
22.836,-0.347,3125
22.840,0.290,3125
22.844,0.892,3125
22.848,1.373,3125
22.852,1.653,3125
22.856,1.730,3098
22.860,1.583,3098
22.864,1.248,3098
22.868,0.767,3098
22.872,0.210,3098
22.876,-0.407,3098
22.880,-1.722,3098
22.884,-2.382,3098
22.888,-2.447,3113
22.892,-2.310,3113
22.896,-1.985,3113
22.900,-1.502,3113
22.904,-0.938,3113
22.908,-0.330,3113
22.912,0.305,3113
22.916,0.900,3113
22.920,1.373,3113
22.924,1.637,3113
22.928,1.715,3121
22.932,1.567,3121
22.936,1.218,3121
22.940,0.738,3121
22.944,0.180,3121
22.948,-0.427,3121
22.952,-1.067,3121
22.956,-1.670,3121
22.960,-2.425,3112
22.964,-2.283,3112
22.968,-1.942,3112
22.972,-1.482,3112
22.976,-0.892,3112
22.980,-0.282,3112
22.984,0.372,3112
22.988,0.892,3112
22.992,1.355,3112
22.996,1.623,3112
23.000,1.677,3119
23.004,1.530,3119
23.008,1.188,3119
23.012,0.705,3119
23.016,0.147,3119
23.020,-0.453,3119
23.024,-1.087,3119
23.028,-1.685,3119
23.032,-2.132,3119
23.036,-2.385,3119
23.040,-2.263,3121
23.044,-1.445,3121
23.048,-0.858,3121
23.052,-0.247,3121
23.056,0.367,3121
23.060,0.907,3121
23.064,1.387,3121
23.068,1.657,3121
23.072,1.732,3126
23.076,1.577,3126
23.080,1.225,3126
23.084,0.738,3126
23.088,0.182,3126
23.092,-0.427,3126
23.096,-1.070,3126
23.100,-1.667,3126
23.104,-2.130,3126
23.108,-2.382,3126
23.112,-2.453,3139
23.116,-2.308,3139
23.120,-1.403,3139
23.124,-0.922,3139
23.128,-0.325,3139
23.132,0.310,3139
23.136,0.900,3139
23.140,1.370,3139
23.144,1.627,3139
23.148,1.698,3131
23.152,1.540,3131
23.156,1.198,3131
23.160,0.713,3131
23.164,0.155,3131
23.168,-0.435,3131
23.172,-1.067,3131
23.176,-1.657,3131
23.180,-2.103,3131
23.184,-2.348,3131
23.188,-2.413,3117
23.192,-2.260,3117
23.196,-1.930,3117
23.200,-0.780,3117
23.204,-0.270,3117
23.208,0.347,3117
23.212,0.932,3117
23.216,1.393,3117
23.220,1.653,3117
23.224,1.710,3134
23.228,1.548,3134
23.232,1.208,3134
23.236,0.718,3134
23.240,0.158,3134
23.244,-0.448,3134
23.248,-1.077,3134
23.252,-1.670,3134
23.256,-2.123,3134
23.260,-2.373,3134
23.264,-2.433,3139
23.268,-2.272,3139
23.272,-1.942,3139
23.276,-1.452,3139
23.280,-0.182,3139
23.284,0.345,3139
23.288,0.917,3139
23.292,1.367,3139
23.296,1.620,3139
23.300,1.677,3128
23.304,1.510,3128
23.308,1.165,3128
23.312,0.670,3128
23.316,0.113,3128
23.320,-0.495,3128
23.324,-1.125,3128
23.328,-1.700,3128
23.332,-2.150,3128
23.336,-2.388,3128
23.340,-2.445,3140
23.344,-2.290,3140
23.348,-1.948,3140
23.352,-1.452,3140
23.356,-0.882,3140
23.360,0.468,3140
23.364,0.983,3140
23.368,1.413,3140
23.372,1.667,3140
23.376,1.732,3136
23.380,1.550,3136
23.384,1.190,3136
23.388,0.703,3136
23.392,-0.015,3136
23.396,-0.590,3136
23.400,-1.183,3136
23.404,-1.748,3136
23.408,-2.132,3136
23.412,-2.370,3136
23.416,-2.413,3140
23.420,-2.252,3140
23.424,-1.897,3140
23.428,-1.410,3140
23.432,-0.812,3140
23.436,-0.250,3140
23.440,1.032,3140
23.444,1.395,3140
23.448,1.653,3140
23.452,1.708,3118
23.456,1.532,3118
23.460,1.175,3118
23.464,0.685,3118
23.468,0.117,3118
23.472,-0.487,3118
23.476,-1.123,3118
23.480,-1.698,3118
23.484,-2.138,3118
23.488,-2.370,3118
23.492,-2.417,3126
23.496,-2.252,3126
23.500,-1.903,3126
23.504,-1.405,3126
23.508,-0.787,3126
23.512,-0.233,3126
23.516,0.393,3126
23.520,1.538,3126
23.524,1.702,3125
23.528,1.075,3125
23.532,0.575,3125
23.536,0.077,3125
23.540,-0.495,3125
23.544,-1.123,3125
23.548,-1.700,3125
23.552,-2.130,3125
23.556,-2.362,3125
23.560,-2.405,3122
23.564,-2.248,3122
23.568,-1.890,3122
23.572,-1.407,3122
23.576,-0.843,3122
23.580,-0.247,3122
23.584,0.380,3122
23.588,0.948,3122
23.592,1.407,3122
23.596,1.650,3122
23.600,1.460,3127
23.604,0.637,3127
23.608,0.092,3127
23.612,-0.525,3127
23.616,-1.153,3127
23.620,-1.725,3127
23.624,-2.147,3127
23.628,-2.365,3127
23.632,-2.408,3125
23.636,-2.243,3125
23.640,-1.885,3125
23.644,-1.385,3125
23.648,-0.825,3125
23.652,-0.223,3125
23.656,0.398,3125
23.660,0.978,3125
23.664,1.397,3125
23.668,1.647,3125
23.672,1.680,3125
23.676,1.498,3129
23.680,0.530,3129
23.684,0.072,3129
23.688,-0.530,3129
23.692,-1.153,3129
23.696,-1.728,3129
23.700,-2.147,3129
23.704,-2.377,3129
23.708,-2.417,3129
23.712,-2.248,3125
23.716,-1.890,3125
23.720,-1.383,3125
23.724,-0.812,3125
23.728,-0.212,3125
23.732,0.417,3125
23.736,0.988,3125
23.740,1.423,3125
23.744,1.663,3125
23.748,1.702,3125
23.752,1.518,3110
23.756,1.137,3110
23.760,-0.065,3110
23.764,-0.562,3110
23.768,-1.262,3110
23.772,-1.772,3110
23.776,-2.175,3110
23.780,-2.382,3110
23.784,-2.422,3110
23.788,-2.180,3115
23.792,-1.363,3115
23.796,-0.818,3115
23.800,-0.217,3115
23.804,0.417,3115
23.808,0.993,3115
23.812,1.417,3115
23.816,1.653,3115
23.820,1.673,3102
23.824,1.070,3102
23.828,0.610,3102
23.832,-0.003,3102
23.836,-0.570,3102
23.840,-1.847,3102
23.844,-2.172,3102
23.848,-2.417,3102
23.852,-2.417,3102
23.856,-2.243,3109
23.860,-1.860,3109
23.864,-1.350,3109
23.868,-0.782,3109
23.872,-0.182,3109
23.876,0.453,3109
23.880,1.058,3109
23.884,1.458,3109
23.888,1.675,3109
23.892,1.715,3109
23.896,1.522,3100
23.900,1.137,3100
23.904,0.613,3100
23.908,0.065,3100
23.912,-0.552,3100
23.916,-1.188,3100
23.920,-2.228,3100
23.924,-2.402,3100
23.928,-2.422,3100
23.932,-2.243,3120
23.936,-1.863,3120
23.940,-1.365,3120
23.944,-0.777,3120
23.948,-0.180,3120
23.952,0.448,3120
23.956,1.020,3120
23.960,1.452,3120
23.964,1.673,3120
23.968,1.705,3120
23.972,1.518,3127
23.976,1.137,3127
23.980,0.632,3127
23.984,0.068,3127
23.988,-0.547,3127
23.992,-1.183,3127
23.996,-1.768,3127
24.000,-2.413,3127
24.004,-2.415,3127
24.008,-2.228,3126
24.012,-1.850,3126
24.016,-1.353,3126
24.020,-0.777,3126
24.024,-0.175,3126
24.028,0.458,3126
24.032,1.022,3126
24.036,1.458,3126
24.040,1.677,3126
24.044,1.702,3126
24.048,1.512,3131
24.052,1.117,3131
24.056,0.618,3131
24.060,0.062,3131
24.064,-0.562,3131
24.068,-1.183,3131
24.072,-1.745,3131
24.076,-2.163,3131
24.080,-2.373,3131
24.084,-2.203,3126
24.088,-1.825,3126
24.092,-1.333,3126
24.096,-0.748,3126
24.100,-0.138,3126
24.104,0.477,3126
24.108,1.048,3126
24.112,1.475,3126
24.116,1.698,3126
24.120,1.712,3126
24.124,1.502,3109
24.128,1.103,3109
24.132,0.593,3109
24.136,0.037,3109
24.140,-0.588,3109
24.144,-1.228,3109
24.148,-1.805,3109
24.152,-2.195,3109
24.156,-2.408,3109
24.160,-2.178,3131
24.164,-1.333,3131
24.168,-0.762,3131
24.172,-0.163,3131
24.176,0.468,3131
24.180,1.038,3131
24.184,1.458,3131
24.188,1.663,3131
24.192,1.675,3131
24.196,1.478,3125
24.200,1.080,3125
24.204,0.583,3125
24.208,0.020,3125
24.212,-0.593,3125
24.216,-1.220,3125
24.220,-1.792,3125
24.224,-2.190,3125
24.228,-2.408,3125
24.232,-2.417,3125
24.236,-2.220,3145
24.240,-1.222,3145
24.244,-0.748,3145
24.248,-0.133,3145
24.252,0.500,3145
24.256,1.067,3145
24.260,1.478,3145
24.264,1.700,3145
24.268,1.698,3145
24.272,1.482,3124
24.276,1.067,3124
24.280,0.568,3124
24.284,-0.015,3124
24.288,-0.652,3124
24.292,-1.238,3124
24.296,-1.802,3124
24.300,-2.195,3124
24.304,-2.402,3124
24.308,-2.415,3124
24.312,-2.220,3136
24.316,-1.843,3136
24.320,-0.657,3136
24.324,-0.140,3136
24.328,0.500,3136
24.332,1.058,3136
24.336,1.478,3136
24.340,1.690,3136
24.344,1.692,3136
24.348,1.490,3132
24.352,1.073,3132
24.356,0.568,3132
24.360,-0.010,3132
24.364,-0.620,3132
24.368,-1.242,3132
24.372,-1.812,3132
24.376,-2.197,3132
24.380,-2.402,3132
24.384,-2.408,3132
24.388,-2.192,3127
24.392,-1.810,3127
24.396,-1.300,3127
24.400,-0.010,3127
24.404,0.527,3127
24.408,1.073,3127
24.412,1.478,3127
24.416,1.692,3127
24.420,1.698,3127
24.424,1.478,3127
24.428,1.062,3127
24.432,0.547,3127
24.436,-0.033,3127
24.440,-0.652,3127
24.444,-1.295,3127
24.448,-1.843,3127
24.452,-2.228,3127
24.456,-2.422,3127
24.460,-2.422,3127
24.464,-2.212,3136
24.468,-1.817,3136
24.472,-1.308,3136
24.476,-0.733,3136
24.480,0.610,3136
24.484,1.060,3136
24.488,1.465,3136
24.492,1.667,3136
24.496,1.670,3136
24.500,1.460,3133
24.504,1.040,3133
24.508,0.537,3133
24.512,-0.043,3133
24.516,-0.657,3133
24.520,-1.292,3133
24.524,-1.845,3133
24.528,-2.223,3133
24.532,-2.422,3133
24.536,-2.417,3133
24.540,-2.212,3136
24.544,-1.823,3136
24.548,-1.305,3136
24.552,-0.730,3136
24.556,-0.113,3136
24.560,1.143,3136
24.564,1.482,3136
24.568,1.665,3136
24.572,1.673,3136
24.576,1.462,3117
24.580,1.038,3117
24.584,0.517,3117
24.588,-0.058,3117
24.592,-0.672,3117
24.596,-1.323,3117
24.600,-1.873,3117
24.604,-2.260,3117
24.608,-2.442,3117
24.612,-2.422,3117
24.616,-2.205,3127
24.620,-1.817,3127
24.624,-1.298,3127
24.628,-0.705,3127
24.632,-0.092,3127
24.636,0.542,3127
24.640,1.542,3127
24.644,1.690,3127
24.648,1.692,3127
24.652,1.468,3128
24.656,1.030,3128
24.660,0.535,3128
24.664,-0.043,3128
24.668,-0.657,3128
24.672,-1.268,3128
24.676,-1.825,3128
24.680,-2.203,3128
24.684,-2.385,3128
24.688,-2.373,3128
24.692,-2.163,3128
24.696,-1.772,3112
24.700,-1.222,3112
24.704,-0.662,3112
24.708,-0.052,3112
24.712,0.573,3112
24.716,1.107,3112
24.720,1.728,3112
24.724,1.708,3112
24.728,1.488,3112
24.732,1.070,3097
24.736,0.535,3097
24.740,-0.043,3097
24.744,-0.667,3097
24.748,-1.298,3097
24.752,-1.843,3097
24.756,-2.212,3097
24.760,-2.408,3097
24.764,-2.388,3097
24.768,-2.178,3097
24.772,-1.788,3121
24.776,-1.258,3121
24.780,-0.703,3121
24.784,-0.092,3121
24.788,0.540,3121
24.792,1.087,3121
24.796,1.475,3121
24.800,1.637,3121
24.804,1.407,3112
24.808,0.420,3112
24.812,-0.083,3112
24.816,-0.703,3112
24.820,-1.330,3112
24.824,-1.870,3112
24.828,-2.257,3112
24.832,-2.428,3112
24.836,-2.417,3112
24.840,-2.192,3112
24.844,-1.802,3119
24.848,-1.252,3119
24.852,-0.695,3119
24.856,-0.072,3119
24.860,0.555,3119
24.864,1.103,3119
24.868,1.498,3119
24.872,1.688,3119
24.876,1.673,3119
24.880,0.855,3111
24.884,-0.163,3111
24.888,-0.703,3111
24.892,-1.335,3111
24.896,-1.867,3111
24.900,-2.252,3111
24.904,-2.428,3111
24.908,-2.408,3111
24.912,-2.175,3111
24.916,-1.770,3131
24.920,-1.218,3131
24.924,-0.657,3131
24.928,-0.043,3131
24.932,0.593,3131
24.936,1.133,3131
24.940,1.510,3131
24.944,1.690,3131
24.948,1.667,3131
24.952,1.420,3131
24.956,0.998,3124
24.960,-0.228,3124
24.964,-0.887,3124
24.968,-1.450,3124
24.972,-1.968,3124
24.976,-2.342,3124
24.980,-2.467,3124
24.984,-2.428,3124
24.988,-2.192,3124
24.992,-1.780,3115
24.996,-1.232,3115
25.000,-0.665,3115
25.004,0.102,3115
25.008,0.583,3115
25.012,1.107,3115
25.016,1.482,3115
25.020,1.660,3115
25.024,1.637,3115
25.028,1.397,3115
25.032,0.988,3100
25.036,0.448,3100
25.040,-0.850,3100
25.044,-1.365,3100
25.048,-1.890,3100
25.052,-2.257,3100
25.056,-2.417,3100
25.060,-2.382,3100
25.064,-2.163,3100
25.068,-1.765,3126
25.072,-1.212,3126
25.076,-0.655,3126
25.080,-0.043,3126
25.084,0.583,3126
25.088,1.113,3126
25.092,1.498,3126
25.096,1.673,3126
25.100,1.647,3126
25.104,1.407,3126
25.108,1.005,3130
25.112,0.435,3130
25.116,-0.128,3130
25.120,-1.460,3130
25.124,-1.923,3130
25.128,-2.280,3130
25.132,-2.442,3130
25.136,-2.410,3130
25.140,-2.172,3130
25.144,-1.748,3113
25.148,-1.210,3113
25.152,-0.642,3113
25.156,-0.022,3113
25.160,0.613,3113
25.164,1.150,3113
25.168,1.518,3113
25.172,1.690,3113
25.176,1.660,3113
25.180,1.407,3113
25.184,0.988,3138
25.188,0.438,3138
25.192,-0.133,3138
25.196,-0.762,3138
25.200,-1.995,3138
25.204,-2.333,3138
25.208,-2.447,3138
25.212,-2.405,3138
25.216,-2.167,3138
25.220,-1.762,3117
25.224,-1.192,3117
25.228,-0.640,3117
25.232,-0.028,3117
25.236,0.593,3117
25.240,1.120,3117
25.244,1.502,3117
25.248,1.675,3117
25.252,1.647,3117
25.256,1.390,3117
25.260,0.973,3142
25.264,0.422,3142
25.268,-0.145,3142
25.272,-0.765,3142
25.276,-1.383,3142
25.280,-2.297,3142
25.284,-2.415,3142
25.288,-2.373,3142
25.292,-2.127,3142
25.296,-1.705,3143
25.300,-1.167,3143
25.304,-0.608,3143
25.308,-0.007,3143
25.312,0.623,3143
25.316,1.147,3143
25.320,1.510,3143
25.324,1.690,3143
25.328,1.657,3143
25.332,1.397,3143
25.336,0.983,3115
25.340,0.432,3115
25.344,-0.133,3115
25.348,-0.755,3115
25.352,-1.383,3115
25.356,-1.927,3115
25.360,-2.473,3115
25.364,-2.380,3115
25.368,-2.138,3115
25.372,-1.732,3139
25.376,-1.183,3139
25.380,-0.610,3139
25.384,-0.007,3139
25.388,0.625,3139
25.392,1.153,3139
25.396,1.510,3139
25.400,1.677,3139
25.404,1.637,3139
25.408,1.387,3139
25.412,0.973,3138
25.416,0.427,3138
25.420,-0.138,3138
25.424,-0.755,3138
25.428,-1.413,3138
25.432,-1.933,3138
25.436,-2.260,3138
25.440,-2.342,3138
25.444,-2.123,3138
25.448,-1.603,3128
25.452,-0.525,3128
25.456,0.045,3128
25.460,0.652,3128
25.464,1.177,3128
25.468,1.538,3128
25.472,1.702,3128
25.476,1.650,3128
25.480,1.397,3128
25.484,0.953,3124
25.488,0.407,3124
25.492,-0.170,3124
25.496,-0.807,3124
25.500,-1.425,3124
25.504,-1.955,3124
25.508,-2.300,3124
25.512,-2.453,3124
25.516,-2.410,3124
25.520,-1.633,3106
25.524,-0.578,3106
25.528,0.048,3106
25.532,0.667,3106
25.536,1.195,3106
25.540,1.552,3106
25.544,1.710,3106
25.548,1.647,3106
25.552,1.380,3106
25.556,0.932,3147
25.560,0.393,3147
25.564,-0.188,3147
25.568,-0.820,3147
25.572,-1.448,3147
25.576,-1.970,3147
25.580,-2.300,3147
25.584,-2.442,3147
25.588,-2.382,3147
25.592,-2.123,3147
25.596,-1.673,3106
25.600,-0.448,3106
25.604,0.070,3106
25.608,0.693,3106
25.612,1.210,3106
25.616,1.558,3106
25.620,1.712,3106
25.624,1.663,3106
25.628,1.397,3106
25.632,0.960,3127
25.636,0.417,3127
25.640,-0.163,3127
25.644,-0.772,3127
25.648,-1.395,3127
25.652,-1.930,3127
25.656,-2.272,3127
25.660,-2.430,3127
25.664,-2.380,3127
25.668,-2.138,3127
25.672,-1.708,3127
25.676,-1.177,3134
25.680,0.128,3134
25.684,0.738,3134
25.688,1.208,3134
25.692,1.528,3134
25.696,1.688,3134
25.700,1.623,3134
25.704,1.360,3134
25.708,0.915,3134
25.712,0.380,3103
25.716,-0.215,3103
25.720,-0.843,3103
25.724,-1.455,3103
25.728,-1.970,3103
25.732,-2.297,3103
25.736,-2.428,3103
25.740,-2.368,3103
25.744,-2.103,3103
25.748,-1.673,3103
25.752,-1.133,3112
25.756,-0.542,3112
25.760,0.782,3112
25.764,1.308,3112
25.768,1.573,3112
25.772,1.718,3112
25.776,1.653,3112
25.780,1.377,3112
25.784,0.912,3112
25.788,0.378,3101
25.792,-0.217,3101
25.796,-0.833,3101
25.800,-1.458,3101
25.804,-1.968,3101
25.808,-2.300,3101
25.812,-2.430,3101
25.816,-2.353,3101
25.820,-2.092,3101
25.824,-1.655,3101
25.828,-1.105,3093
25.832,-0.520,3093
25.836,0.102,3093
25.840,1.308,3093
25.844,1.570,3093
25.848,1.712,3093
25.852,1.637,3093
25.856,1.357,3093
25.860,0.915,3093
25.864,0.372,3115
25.868,-0.228,3115
25.872,-0.853,3115
25.876,-1.472,3115
25.880,-1.985,3115
25.884,-2.310,3115
25.888,-2.442,3115
25.892,-2.373,3115
25.896,-2.103,3115
25.900,-1.660,3115
25.904,-1.103,3099
25.908,-0.507,3099
25.912,0.113,3099
25.916,0.710,3099
25.920,1.583,3099
25.924,1.692,3099
25.928,1.620,3099
25.932,1.345,3099
25.936,0.895,3099
25.940,0.367,3122
25.944,-0.225,3122
25.948,-0.843,3122
25.952,-1.455,3122
25.956,-1.952,3122
25.960,-2.272,3122
25.964,-2.408,3122
25.968,-2.337,3122
25.972,-2.065,3122
25.976,-1.627,3122
25.980,-1.077,3113
25.984,-0.495,3113
25.988,0.117,3113
25.992,0.733,3113
25.996,1.228,3113
26.000,1.702,3113
26.004,1.623,3113
26.008,1.337,3113
26.012,0.877,3113
26.016,0.338,3113
26.020,-0.263,3113
26.024,-0.895,3113
26.028,-1.508,3113
26.032,-2.015,3113
26.036,-2.333,3113
26.040,-2.460,3113
26.044,-2.382,3113
26.048,-2.107,3113
26.052,-1.663,3113
26.056,-1.093,3114
26.060,-0.495,3114
26.064,0.133,3114
26.068,0.738,3114
26.072,1.250,3114
26.076,1.577,3114
26.080,1.593,3114
26.084,1.323,3114
26.088,0.887,3114
26.092,0.347,3122
26.096,-0.258,3122
26.100,-0.873,3122
26.104,-1.492,3122
26.108,-1.992,3122
26.112,-2.312,3122
26.116,-2.442,3122
26.120,-2.353,3122
26.124,-2.087,3122
26.128,-1.647,3122
26.132,-1.095,3132
26.136,-0.505,3132
26.140,0.117,3132
26.144,0.738,3132
26.148,1.248,3132
26.152,1.573,3132
26.156,1.712,3132
26.160,1.295,3132
26.164,0.812,3132
26.168,0.345,3126
26.172,-0.263,3126
26.176,-0.882,3126
26.180,-1.492,3126
26.184,-1.995,3126
26.188,-2.308,3126
26.192,-2.442,3126
26.196,-2.355,3126
26.200,-2.067,3126
26.204,-1.647,3126
26.208,-1.093,3133
26.212,-0.502,3133
26.216,0.128,3133
26.220,0.738,3133
26.224,1.230,3133
26.228,1.583,3133
26.232,1.728,3133
26.236,1.643,3133
26.240,0.772,3133
26.244,0.338,3135
26.248,-0.292,3135
26.252,-0.980,3135
26.256,-1.528,3135
26.260,-2.033,3135
26.264,-2.342,3135
26.268,-2.462,3135
26.272,-2.373,3135
26.276,-2.087,3135
26.280,-1.627,3135
26.284,-1.062,3119
26.288,-0.458,3119
26.292,0.152,3119
26.296,0.772,3119
26.300,1.270,3119
26.304,1.597,3119
26.308,1.728,3119
26.312,1.633,3119
26.316,1.340,3119
26.320,0.217,3133
26.324,-0.983,3133
26.328,-1.532,3133
26.332,-2.027,3133
26.336,-2.340,3133
26.340,-2.458,3133
26.344,-2.362,3133
26.348,-2.090,3133
26.352,-1.633,3133
26.356,-1.067,3137
26.360,-0.468,3137
26.364,0.147,3137
26.368,0.752,3137
26.372,1.255,3137
26.376,1.573,3137
26.380,1.690,3137
26.384,1.587,3137
