Czas(s),EKG_Surowe(mV)
0.000,-0.269
0.001,-0.274
0.002,-0.281
0.003,-0.296
0.004,-0.321
0.005,-0.341
0.006,-0.364
0.007,-0.386
0.008,-0.405
0.009,-0.414
0.010,-0.421
0.011,-0.421
0.012,-0.409
0.013,-0.394
0.014,-0.379
0.015,-0.366
0.016,-0.347
0.017,-0.331
0.018,-0.324
0.019,-0.310
0.020,-0.333
0.021,-0.350
0.022,-0.383
0.023,-0.407
0.024,-0.444
0.025,-0.449
0.026,-0.446
0.027,-0.422
0.028,-0.407
0.029,-0.376
0.030,-0.351
0.031,-0.326
0.032,-0.286
0.033,-0.260
0.034,-0.246
0.035,-0.246
0.036,-0.249
0.037,-0.254
0.038,-0.270
0.039,-0.296
0.040,-0.351
0.041,-0.386
0.042,-0.404
0.043,-0.411
0.044,-0.421
0.045,-0.411
0.046,-0.405
0.047,-0.388
0.048,-0.374
0.049,-0.356
0.050,-0.334
0.051,-0.321
0.052,-0.296
0.053,-0.290
0.054,-0.294
0.055,-0.302
0.056,-0.324
0.057,-0.341
0.058,-0.369
0.059,-0.393
0.060,-0.456
0.061,-0.481
0.062,-0.504
0.063,-0.512
0.064,-0.521
0.065,-0.514
0.066,-0.504
0.067,-0.484
0.068,-0.451
0.069,-0.421
0.070,-0.376
0.071,-0.334
0.072,-0.281
0.073,-0.226
0.074,-0.176
0.075,-0.126
0.076,-0.061
0.077,0.009
0.078,0.076
0.079,0.154
0.080,0.352
0.081,0.469
0.082,0.551
0.083,0.671
0.084,0.806
0.085,0.939
0.086,1.087
0.087,1.238
0.088,1.397
0.089,1.551
0.090,1.695
0.091,1.799
0.092,1.869
0.093,1.889
0.094,1.859
0.095,1.796
0.096,1.709
0.097,1.584
0.098,1.436
0.099,1.288
0.100,0.929
0.101,0.792
0.102,0.631
0.103,0.476
0.104,0.326
0.105,0.189
0.106,0.051
0.107,-0.084
0.108,-0.194
0.109,-0.305
0.110,-0.386
0.111,-0.463
0.112,-0.526
0.113,-0.576
0.114,-0.629
0.115,-0.681
0.116,-0.724
0.117,-0.764
0.118,-0.804
0.119,-0.821
0.120,-0.848
0.121,-0.834
0.122,-0.792
0.123,-0.762
0.124,-0.713
0.125,-0.670
0.126,-0.616
0.127,-0.516
0.128,-0.486
0.129,-0.461
0.130,-0.454
0.131,-0.454
0.132,-0.465
0.133,-0.489
0.134,-0.514
0.135,-0.541
0.136,-0.568
0.137,-0.589
0.138,-0.601
0.139,-0.613
0.140,-0.603
0.141,-0.585
0.142,-0.564
0.143,-0.506
0.144,-0.484
0.145,-0.459
0.146,-0.443
0.147,-0.435
0.148,-0.444
0.149,-0.451
0.150,-0.470
0.151,-0.491
0.152,-0.511
0.153,-0.532
0.154,-0.546
0.155,-0.561
0.156,-0.566
0.157,-0.566
0.158,-0.561
0.159,-0.550
0.160,-0.509
0.161,-0.485
0.162,-0.466
0.163,-0.458
0.164,-0.466
0.165,-0.471
0.166,-0.490
0.167,-0.509
0.168,-0.522
0.169,-0.541
0.170,-0.554
0.171,-0.569
0.172,-0.575
0.173,-0.576
0.174,-0.574
0.175,-0.561
0.176,-0.541
0.177,-0.521
0.178,-0.496
0.179,-0.470
0.180,-0.430
0.181,-0.411
0.182,-0.411
0.183,-0.411
0.184,-0.421
0.185,-0.434
0.186,-0.454
0.187,-0.472
0.188,-0.494
0.189,-0.511
0.190,-0.526
0.191,-0.524
0.192,-0.524
0.193,-0.514
0.194,-0.504
0.195,-0.481
0.196,-0.446
0.197,-0.421
0.198,-0.391
0.199,-0.370
0.200,-0.346
0.201,-0.346
0.202,-0.355
0.203,-0.371
0.204,-0.401
0.205,-0.421
0.206,-0.444
0.207,-0.463
0.208,-0.481
0.209,-0.491
0.210,-0.494
0.211,-0.481
0.212,-0.461
0.213,-0.434
0.214,-0.401
0.215,-0.370
0.216,-0.341
0.217,-0.306
0.218,-0.285
0.219,-0.271
0.220,-0.265
0.221,-0.274
0.222,-0.290
0.223,-0.321
0.224,-0.346
0.225,-0.371
0.226,-0.401
0.227,-0.416
0.228,-0.426
0.229,-0.426
0.230,-0.425
0.231,-0.411
0.232,-0.401
0.233,-0.381
0.234,-0.364
0.235,-0.341
0.236,-0.326
0.237,-0.307
0.238,-0.294
0.239,-0.291
0.240,-0.292
0.241,-0.301
0.242,-0.321
0.243,-0.336
0.244,-0.351
0.245,-0.366
0.246,-0.371
0.247,-0.379
0.248,-0.384
0.249,-0.374
0.250,-0.365
0.251,-0.351
0.252,-0.331
0.253,-0.304
0.254,-0.281
0.255,-0.249
0.256,-0.215
0.257,-0.195
0.258,-0.186
0.259,-0.184
0.260,-0.211
0.261,-0.231
0.262,-0.256
0.263,-0.284
0.264,-0.301
0.265,-0.326
0.266,-0.343
0.267,-0.347
0.268,-0.347
0.269,-0.335
0.270,-0.324
0.271,-0.294
0.272,-0.270
0.273,-0.246
0.274,-0.223
0.275,-0.206
0.276,-0.191
0.277,-0.190
0.278,-0.190
0.279,-0.203
0.280,-0.211
0.281,-0.223
0.282,-0.229
0.283,-0.244
0.284,-0.249
0.285,-0.251
0.286,-0.251
0.287,-0.246
0.288,-0.226
0.289,-0.204
0.290,-0.175
0.291,-0.144
0.292,-0.114
0.293,-0.091
0.294,-0.056
0.295,-0.041
0.296,-0.034
0.297,-0.035
0.298,-0.050
0.299,-0.069
0.300,-0.128
0.301,-0.147
0.302,-0.175
0.303,-0.196
0.304,-0.221
0.305,-0.231
0.306,-0.241
0.307,-0.226
0.308,-0.211
0.309,-0.184
0.310,-0.146
0.311,-0.092
0.312,-0.049
0.313,-0.034
0.314,-0.026
0.315,-0.026
0.316,-0.041
0.317,-0.046
0.318,-0.064
0.319,-0.089
0.320,-0.129
0.321,-0.171
0.322,-0.184
0.323,-0.191
0.324,-0.191
0.325,-0.182
0.326,-0.166
0.327,-0.141
0.328,-0.113
0.329,-0.089
0.330,-0.066
0.331,-0.051
0.332,-0.046
0.333,-0.049
0.334,-0.056
0.335,-0.070
0.336,-0.091
0.337,-0.111
0.338,-0.129
0.339,-0.150
0.340,-0.181
0.341,-0.181
0.342,-0.176
0.343,-0.172
0.344,-0.165
0.345,-0.161
0.346,-0.150
0.347,-0.141
0.348,-0.138
0.349,-0.131
0.350,-0.130
0.351,-0.130
0.352,-0.136
0.353,-0.149
0.354,-0.164
0.355,-0.186
0.356,-0.212
0.357,-0.241
0.358,-0.266
0.359,-0.290
0.360,-0.309
0.361,-0.309
0.362,-0.301
0.363,-0.285
0.364,-0.273
0.365,-0.260
0.366,-0.250
0.367,-0.242
0.368,-0.231
0.369,-0.230
0.370,-0.234
0.371,-0.242
0.372,-0.254
0.373,-0.270
0.374,-0.299
0.375,-0.331
0.376,-0.366
0.377,-0.401
0.378,-0.426
0.379,-0.436
0.380,-0.426
0.381,-0.414
0.382,-0.386
0.383,-0.367
0.384,-0.341
0.385,-0.321
0.386,-0.302
0.387,-0.291
0.388,-0.282
0.389,-0.281
0.390,-0.284
0.391,-0.289
0.392,-0.297
0.393,-0.314
0.394,-0.335
0.395,-0.351
0.396,-0.367
0.397,-0.374
0.398,-0.386
0.399,-0.390
0.400,-0.386
0.401,-0.376
0.402,-0.344
0.403,-0.296
0.404,-0.271
0.405,-0.254
0.406,-0.241
0.407,-0.233
0.408,-0.241
0.409,-0.249
0.410,-0.266
0.411,-0.286
0.412,-0.311
0.413,-0.338
0.414,-0.366
0.415,-0.386
0.416,-0.406
0.417,-0.412
0.418,-0.416
0.419,-0.406
0.420,-0.366
0.421,-0.345
0.422,-0.324
0.423,-0.287
0.424,-0.282
0.425,-0.280
0.426,-0.289
0.427,-0.301
0.428,-0.321
0.429,-0.341
0.430,-0.365
0.431,-0.383
0.432,-0.411
0.433,-0.421
0.434,-0.426
0.435,-0.420
0.436,-0.406
0.437,-0.386
0.438,-0.359
0.439,-0.335
0.440,-0.274
0.441,-0.240
0.442,-0.228
0.443,-0.224
0.444,-0.228
0.445,-0.244
0.446,-0.264
0.447,-0.286
0.448,-0.311
0.449,-0.341
0.450,-0.361
0.451,-0.381
0.452,-0.389
0.453,-0.394
0.454,-0.389
0.455,-0.379
0.456,-0.365
0.457,-0.347
0.458,-0.326
0.459,-0.307
0.460,-0.271
0.461,-0.266
0.462,-0.266
0.463,-0.274
0.464,-0.285
0.465,-0.301
0.466,-0.326
0.467,-0.344
0.468,-0.355
0.469,-0.367
0.470,-0.376
0.471,-0.384
0.472,-0.386
0.473,-0.389
0.474,-0.386
0.475,-0.375
0.476,-0.366
0.477,-0.350
0.478,-0.331
0.479,-0.314
0.480,-0.290
0.481,-0.287
0.482,-0.290
0.483,-0.297
0.484,-0.309
0.485,-0.329
0.486,-0.341
0.487,-0.346
0.488,-0.351
0.489,-0.355
0.490,-0.356
0.491,-0.350
0.492,-0.335
0.493,-0.311
0.494,-0.294
0.495,-0.276
0.496,-0.266
0.497,-0.251
0.498,-0.251
0.499,-0.256
0.500,-0.290
0.501,-0.307
0.502,-0.331
0.503,-0.369
0.504,-0.384
0.505,-0.391
0.506,-0.395
0.507,-0.390
0.508,-0.381
0.509,-0.362
0.510,-0.336
0.511,-0.310
0.512,-0.289
0.513,-0.263
0.514,-0.251
0.515,-0.226
0.516,-0.221
0.517,-0.217
0.518,-0.226
0.519,-0.244
0.520,-0.284
0.521,-0.291
0.522,-0.306
0.523,-0.321
0.524,-0.334
0.525,-0.341
0.526,-0.346
0.527,-0.349
0.528,-0.344
0.529,-0.330
0.530,-0.309
0.531,-0.285
0.532,-0.269
0.533,-0.251
0.534,-0.230
0.535,-0.216
0.536,-0.211
0.537,-0.211
0.538,-0.214
0.539,-0.229
0.540,-0.271
0.541,-0.291
0.542,-0.321
0.543,-0.341
0.544,-0.361
0.545,-0.371
0.546,-0.374
0.547,-0.374
0.548,-0.364
0.549,-0.345
0.550,-0.328
0.551,-0.296
0.552,-0.276
0.553,-0.263
0.554,-0.249
0.555,-0.245
0.556,-0.241
0.557,-0.245
0.558,-0.251
0.559,-0.264
0.560,-0.309
0.561,-0.330
0.562,-0.344
0.563,-0.354
0.564,-0.357
0.565,-0.356
0.566,-0.349
0.567,-0.335
0.568,-0.324
0.569,-0.304
0.570,-0.289
0.571,-0.256
0.572,-0.254
0.573,-0.244
0.574,-0.226
0.575,-0.226
0.576,-0.217
0.577,-0.229
0.578,-0.241
0.579,-0.256
0.580,-0.302
0.581,-0.334
0.582,-0.349
0.583,-0.351
0.584,-0.341
0.585,-0.333
0.586,-0.325
0.587,-0.306
0.588,-0.290
0.589,-0.271
0.590,-0.256
0.591,-0.245
0.592,-0.245
0.593,-0.244
0.594,-0.255
0.595,-0.264
0.596,-0.296
0.597,-0.330
0.598,-0.349
0.599,-0.364
0.600,-0.381
0.601,-0.381
0.602,-0.383
0.603,-0.376
0.604,-0.367
0.605,-0.354
0.606,-0.336
0.607,-0.321
0.608,-0.305
0.609,-0.296
0.610,-0.294
0.611,-0.294
0.612,-0.309
0.613,-0.326
0.614,-0.346
0.615,-0.364
0.616,-0.385
0.617,-0.405
0.618,-0.416
0.619,-0.426
0.620,-0.430
0.621,-0.424
0.622,-0.410
0.623,-0.384
0.624,-0.356
0.625,-0.331
0.626,-0.264
0.627,-0.289
0.628,-0.269
0.629,-0.253
0.630,-0.249
0.631,-0.256
0.632,-0.271
0.633,-0.295
0.634,-0.326
0.635,-0.351
0.636,-0.374
0.637,-0.400
0.638,-0.410
0.639,-0.425
0.640,-0.426
0.641,-0.414
0.642,-0.401
0.643,-0.376
0.644,-0.356
0.645,-0.336
0.646,-0.311
0.647,-0.294
0.648,-0.285
0.649,-0.274
0.650,-0.269
0.651,-0.271
0.652,-0.281
0.653,-0.295
0.654,-0.306
0.655,-0.325
0.656,-0.336
0.657,-0.350
0.658,-0.312
0.659,-0.364
0.660,-0.344
0.661,-0.334
0.662,-0.312
0.663,-0.291
0.664,-0.281
0.665,-0.264
0.666,-0.254
0.667,-0.249
0.668,-0.256
0.669,-0.266
0.670,-0.286
0.671,-0.306
0.672,-0.331
0.673,-0.349
0.674,-0.370
0.675,-0.384
0.676,-0.394
0.677,-0.394
0.678,-0.391
0.679,-0.384
0.680,-0.349
0.681,-0.333
0.682,-0.321
0.683,-0.301
0.684,-0.294
0.685,-0.294
0.686,-0.297
0.687,-0.301
0.688,-0.356
0.689,-0.309
0.690,-0.324
0.691,-0.329
0.692,-0.341
0.693,-0.354
0.694,-0.369
0.695,-0.369
0.696,-0.361
0.697,-0.354
0.698,-0.345
0.699,-0.331
0.700,-0.286
0.701,-0.269
0.702,-0.265
0.703,-0.266
0.704,-0.274
0.705,-0.289
0.706,-0.301
0.707,-0.324
0.708,-0.336
0.709,-0.352
0.710,-0.367
0.711,-0.376
0.712,-0.386
0.713,-0.385
0.714,-0.376
0.715,-0.364
0.716,-0.343
0.717,-0.310
0.718,-0.284
0.719,-0.256
0.720,-0.224
0.721,-0.226
0.722,-0.242
0.723,-0.261
0.724,-0.276
0.725,-0.291
0.726,-0.309
0.727,-0.325
0.728,-0.341
0.729,-0.349
0.730,-0.354
0.731,-0.352
0.732,-0.347
0.733,-0.333
0.734,-0.311
0.735,-0.289
0.736,-0.261
0.737,-0.229
0.738,-0.201
0.739,-0.171
0.740,-0.134
0.741,-0.141
0.742,-0.151
0.743,-0.176
0.744,-0.190
0.745,-0.211
0.746,-0.230
0.747,-0.250
0.748,-0.269
0.749,-0.274
0.750,-0.281
0.751,-0.280
0.752,-0.270
0.753,-0.256
0.754,-0.235
0.755,-0.212
0.756,-0.191
0.757,-0.181
0.758,-0.165
0.759,-0.161
0.760,-0.174
0.761,-0.182
0.762,-0.196
0.763,-0.211
0.764,-0.224
0.765,-0.231
0.766,-0.242
0.767,-0.244
0.768,-0.245
0.769,-0.229
0.770,-0.214
0.771,-0.195
0.772,-0.172
0.773,-0.145
0.774,-0.126
0.775,-0.106
0.776,-0.092
0.777,-0.086
0.778,-0.071
0.779,-0.071
0.780,-0.106
0.781,-0.166
0.782,-0.198
0.783,-0.242
0.784,-0.274
0.785,-0.301
0.786,-0.325
0.787,-0.330
0.788,-0.326
0.789,-0.306
0.790,-0.294
0.791,-0.271
0.792,-0.254
0.793,-0.230
0.794,-0.210
0.795,-0.189
0.796,-0.171
0.797,-0.166
0.798,-0.164
0.799,-0.176
0.800,-0.224
0.801,-0.251
0.802,-0.275
0.803,-0.297
0.804,-0.324
0.805,-0.341
0.806,-0.354
0.807,-0.361
0.808,-0.356
0.809,-0.350
0.810,-0.336
0.811,-0.310
0.812,-0.294
0.813,-0.271
0.814,-0.256
0.815,-0.246
0.816,-0.244
0.817,-0.249
0.818,-0.254
0.819,-0.269
0.820,-0.321
0.821,-0.324
0.822,-0.343
0.823,-0.347
0.824,-0.351
0.825,-0.352
0.826,-0.350
0.827,-0.340
0.828,-0.321
0.829,-0.296
0.830,-0.286
0.831,-0.271
0.832,-0.254
0.833,-0.249
0.834,-0.241
0.835,-0.234
0.836,-0.234
0.837,-0.250
0.838,-0.265
0.839,-0.285
0.840,-0.331
0.841,-0.354
0.842,-0.356
0.843,-0.365
0.844,-0.366
0.845,-0.361
0.846,-0.350
0.847,-0.331
0.848,-0.309
0.849,-0.289
0.850,-0.266
0.851,-0.250
0.852,-0.234
0.853,-0.217
0.854,-0.216
0.855,-0.226
0.856,-0.234
0.857,-0.251
0.858,-0.275
0.859,-0.294
0.860,-0.346
0.861,-0.384
0.862,-0.394
0.863,-0.391
0.864,-0.390
0.865,-0.370
0.866,-0.349
0.867,-0.324
0.868,-0.289
0.869,-0.264
0.870,-0.246
0.871,-0.226
0.872,-0.226
0.873,-0.224
0.874,-0.241
0.875,-0.261
0.876,-0.286
0.877,-0.329
0.878,-0.365
0.879,-0.389
0.880,-0.434
0.881,-0.446
0.882,-0.450
0.883,-0.446
0.884,-0.441
0.885,-0.426
0.886,-0.412
0.887,-0.404
0.888,-0.401
0.889,-0.393
0.890,-0.391
0.891,-0.376
0.892,-0.361
0.893,-0.331
0.894,-0.286
0.895,-0.234
0.896,-0.180
0.897,-0.104
0.898,-0.021
0.899,0.074
0.900,0.307
0.901,0.419
0.902,0.544
0.903,0.665
0.904,0.787
0.905,0.915
0.906,1.039
0.907,1.180
0.908,1.317
0.909,1.446
0.910,1.566
0.911,1.664
0.912,1.731
0.913,1.752
0.914,1.739
0.915,1.690
0.916,1.611
0.917,1.512
0.918,1.406
0.919,1.291
0.920,1.016
0.921,0.906
0.922,0.746
0.923,0.591
0.924,0.434
0.925,0.276
0.926,0.128
0.927,-0.016
0.928,-0.144
0.929,-0.261
0.930,-0.365
0.931,-0.446
0.932,-0.521
0.933,-0.581
0.934,-0.629
0.935,-0.671
0.936,-0.701
0.937,-0.726
0.938,-0.738
0.939,-0.746
0.940,-0.735
0.941,-0.729
0.942,-0.708
0.943,-0.689
0.944,-0.667
0.945,-0.646
0.946,-0.621
0.947,-0.605
0.948,-0.596
0.949,-0.590
0.950,-0.584
0.951,-0.583
0.952,-0.586
0.953,-0.588
0.954,-0.589
0.955,-0.591
0.956,-0.589
0.957,-0.581
0.958,-0.574
0.959,-0.554
0.960,-0.514
0.961,-0.502
0.962,-0.496
0.963,-0.489
0.964,-0.471
0.965,-0.486
0.966,-0.504
0.967,-0.519
0.968,-0.541
0.969,-0.555
0.970,-0.574
0.971,-0.586
0.972,-0.603
0.973,-0.606
0.974,-0.604
0.975,-0.594
0.976,-0.562
0.977,-0.541
0.978,-0.511
0.979,-0.486
0.980,-0.445
0.981,-0.441
0.982,-0.441
0.983,-0.454
0.984,-0.466
0.985,-0.491
0.986,-0.516
0.987,-0.531
0.988,-0.546
0.989,-0.569
0.990,-0.574
0.991,-0.575
0.992,-0.570
0.993,-0.561
0.994,-0.546
0.995,-0.530
0.996,-0.512
0.997,-0.496
0.998,-0.481
0.999,-0.464
1.000,-0.454
1.001,-0.453
1.002,-0.464
1.003,-0.481
1.004,-0.496
1.005,-0.509
1.006,-0.525
1.007,-0.531
1.008,-0.536
1.009,-0.541
1.010,-0.535
1.011,-0.526
1.012,-0.512
1.013,-0.494
1.014,-0.472
1.015,-0.451
1.016,-0.436
1.017,-0.424
1.018,-0.420
1.019,-0.415
1.020,-0.441
1.021,-0.456
1.022,-0.474
1.023,-0.496
1.024,-0.516
1.025,-0.532
1.026,-0.550
1.027,-0.569
1.028,-0.581
1.029,-0.584
1.030,-0.576
1.031,-0.564
1.032,-0.537
1.033,-0.514
1.034,-0.486
1.035,-0.456
1.036,-0.443
1.037,-0.431
1.038,-0.431
1.039,-0.445
1.040,-0.484
1.041,-0.501
1.042,-0.511
1.043,-0.516
1.044,-0.521
1.045,-0.521
1.046,-0.516
1.047,-0.514
1.048,-0.506
1.049,-0.494
1.050,-0.474
1.051,-0.458
1.052,-0.441
1.053,-0.421
1.054,-0.406
1.055,-0.391
1.056,-0.384
1.057,-0.374
1.058,-0.374
1.059,-0.376
1.060,-0.409
1.061,-0.421
1.062,-0.435
1.063,-0.450
1.064,-0.465
1.065,-0.474
1.066,-0.485
1.067,-0.472
1.068,-0.464
1.069,-0.445
1.070,-0.432
1.071,-0.404
1.072,-0.386
1.073,-0.383
1.074,-0.384
1.075,-0.388
1.076,-0.401
1.077,-0.406
1.078,-0.414
1.079,-0.426
1.080,-0.434
1.081,-0.426
1.082,-0.414
1.083,-0.394
1.084,-0.371
1.085,-0.349
1.086,-0.324
1.087,-0.299
1.088,-0.281
1.089,-0.261
1.090,-0.256
1.091,-0.247
1.092,-0.246
1.093,-0.253
1.094,-0.261
1.095,-0.271
1.096,-0.281
1.097,-0.291
1.098,-0.304
1.099,-0.307
1.100,-0.321
1.101,-0.324
1.102,-0.314
1.103,-0.307
1.104,-0.294
1.105,-0.281
1.106,-0.264
1.107,-0.247
1.108,-0.234
1.109,-0.229
1.110,-0.226
1.111,-0.225
1.112,-0.230
1.113,-0.244
1.114,-0.249
1.115,-0.255
1.116,-0.269
1.117,-0.281
1.118,-0.291
1.119,-0.306
1.120,-0.310
1.121,-0.299
1.122,-0.281
1.123,-0.255
1.124,-0.217
1.125,-0.193
1.126,-0.168
1.127,-0.147
1.128,-0.138
1.129,-0.131
1.130,-0.136
1.131,-0.147
1.132,-0.171
1.133,-0.188
1.134,-0.209
1.135,-0.224
1.136,-0.250
1.137,-0.256
1.138,-0.271
1.139,-0.282
1.140,-0.266
1.141,-0.255
1.142,-0.230
1.143,-0.209
1.144,-0.188
1.145,-0.176
1.146,-0.161
1.147,-0.144
1.148,-0.146
1.149,-0.144
1.150,-0.151
1.151,-0.171
1.152,-0.189
1.153,-0.211
1.154,-0.228
1.155,-0.246
1.156,-0.264
1.157,-0.284
1.158,-0.296
1.159,-0.304
1.160,-0.306
1.161,-0.304
1.162,-0.297
1.163,-0.289
1.164,-0.276
1.165,-0.270
1.166,-0.264
1.167,-0.264
1.168,-0.269
1.169,-0.281
1.170,-0.294
1.171,-0.325
1.172,-0.347
1.173,-0.371
1.174,-0.391
1.175,-0.406
1.176,-0.406
1.177,-0.385
1.178,-0.365
1.179,-0.349
1.180,-0.309
1.181,-0.287
1.182,-0.276
1.183,-0.284
1.184,-0.292
1.185,-0.306
1.186,-0.325
1.187,-0.351
1.188,-0.371
1.189,-0.404
1.190,-0.430
1.191,-0.451
1.192,-0.471
1.193,-0.484
1.194,-0.485
1.195,-0.485
1.196,-0.471
1.197,-0.459
1.198,-0.449
1.199,-0.441
1.200,-0.411
1.201,-0.391
1.202,-0.389
1.203,-0.390
1.204,-0.404
1.205,-0.421
1.206,-0.441
1.207,-0.450
1.208,-0.464
1.209,-0.464
1.210,-0.463
1.211,-0.456
1.212,-0.449
1.213,-0.434
1.214,-0.422
1.215,-0.410
1.216,-0.404
1.217,-0.386
1.218,-0.374
1.219,-0.362
1.220,-0.340
1.221,-0.345
1.222,-0.354
1.223,-0.369
1.224,-0.389
1.225,-0.411
1.226,-0.431
1.227,-0.449
1.228,-0.461
1.229,-0.469
1.230,-0.469
1.231,-0.464
1.232,-0.450
1.233,-0.441
1.234,-0.421
1.235,-0.405
1.236,-0.385
1.237,-0.371
1.238,-0.369
1.239,-0.374
1.240,-0.389
1.241,-0.389
1.242,-0.405
1.243,-0.416
1.244,-0.424
1.245,-0.427
1.246,-0.440
1.247,-0.441
1.248,-0.431
1.249,-0.422
1.250,-0.411
1.251,-0.391
1.252,-0.374
1.253,-0.330
1.254,-0.321
1.255,-0.304
1.256,-0.296
1.257,-0.296
1.258,-0.307
1.259,-0.321
1.260,-0.349
1.261,-0.372
1.262,-0.401
1.263,-0.414
1.264,-0.426
1.265,-0.427
1.266,-0.426
1.267,-0.411
1.268,-0.391
1.269,-0.370
1.270,-0.351
1.271,-0.329
1.272,-0.314
1.273,-0.306
1.274,-0.306
1.275,-0.310
1.276,-0.325
1.277,-0.334
1.278,-0.345
1.279,-0.351
1.280,-0.370
1.281,-0.374
1.282,-0.381
1.283,-0.388
1.284,-0.390
1.285,-0.389
1.286,-0.374
1.287,-0.352
1.288,-0.329
1.289,-0.304
1.290,-0.281
1.291,-0.261
1.292,-0.246
1.293,-0.241
1.294,-0.244
1.295,-0.253
1.296,-0.263
1.297,-0.281
1.298,-0.295
1.299,-0.320
1.300,-0.356
1.301,-0.369
1.302,-0.376
1.303,-0.386
1.304,-0.379
1.305,-0.369
1.306,-0.349
1.307,-0.326
1.308,-0.295
1.309,-0.281
1.310,-0.261
1.311,-0.249
1.312,-0.242
1.313,-0.246
1.314,-0.250
1.315,-0.263
1.316,-0.274
1.317,-0.286
1.318,-0.295
1.319,-0.306
1.320,-0.326
1.321,-0.324
1.322,-0.321
1.323,-0.304
1.324,-0.284
1.325,-0.265
1.326,-0.255
1.327,-0.234
1.328,-0.226
1.329,-0.228
1.330,-0.230
1.331,-0.246
1.332,-0.254
1.333,-0.269
1.334,-0.280
1.335,-0.276
1.336,-0.281
1.337,-0.281
1.338,-0.280
1.339,-0.281
1.340,-0.289
1.341,-0.284
1.342,-0.274
1.343,-0.269
1.344,-0.260
1.345,-0.254
1.346,-0.230
1.347,-0.209
1.348,-0.201
1.349,-0.201
1.350,-0.211
1.351,-0.231
1.352,-0.255
1.353,-0.271
1.354,-0.291
1.355,-0.309
1.356,-0.321
1.357,-0.324
1.358,-0.311
1.359,-0.306
1.360,-0.266
1.361,-0.254
1.362,-0.233
1.363,-0.215
1.364,-0.201
1.365,-0.194
1.366,-0.191
1.367,-0.196
1.368,-0.209
1.369,-0.226
1.370,-0.249
1.371,-0.268
1.372,-0.289
1.373,-0.304
1.374,-0.324
1.375,-0.334
1.376,-0.336
1.377,-0.333
1.378,-0.321
1.379,-0.299
1.380,-0.261
1.381,-0.253
1.382,-0.241
1.383,-0.233
1.384,-0.234
1.385,-0.250
1.386,-0.264
1.387,-0.271
1.388,-0.286
1.389,-0.304
1.390,-0.321
1.391,-0.329
1.392,-0.334
1.393,-0.341
1.394,-0.336
1.395,-0.331
1.396,-0.314
1.397,-0.301
1.398,-0.284
1.399,-0.265
1.400,-0.231
1.401,-0.224
1.402,-0.216
1.403,-0.210
1.404,-0.214
1.405,-0.224
1.406,-0.241
1.407,-0.256
1.408,-0.284
1.409,-0.306
1.410,-0.330
1.411,-0.345
1.412,-0.357
1.413,-0.366
1.414,-0.365
1.415,-0.362
1.416,-0.344
1.417,-0.329
1.418,-0.304
1.419,-0.285
1.420,-0.234
1.421,-0.228
1.422,-0.216
1.423,-0.214
1.424,-0.225
1.425,-0.241
1.426,-0.266
1.427,-0.290
1.428,-0.314
1.429,-0.334
1.430,-0.361
1.431,-0.381
1.432,-0.389
1.433,-0.383
1.434,-0.370
1.435,-0.345
1.436,-0.314
1.437,-0.285
1.438,-0.264
1.439,-0.241
1.440,-0.210
1.441,-0.211
1.442,-0.214
1.443,-0.221
1.444,-0.229
1.445,-0.246
1.446,-0.261
1.447,-0.275
1.448,-0.291
1.449,-0.304
1.450,-0.309
1.451,-0.296
1.452,-0.286
1.453,-0.270
1.454,-0.254
1.455,-0.231
1.456,-0.209
1.457,-0.191
1.458,-0.181
1.459,-0.174
1.460,-0.194
1.461,-0.201
1.462,-0.224
1.463,-0.254
1.464,-0.281
1.465,-0.305
1.466,-0.331
1.467,-0.349
1.468,-0.354
1.469,-0.356
1.470,-0.351
1.471,-0.341
1.472,-0.329
1.473,-0.311
1.474,-0.305
1.475,-0.294
1.476,-0.281
1.477,-0.269
1.478,-0.256
1.479,-0.249
1.480,-0.226
1.481,-0.226
1.482,-0.231
1.483,-0.244
1.484,-0.249
1.485,-0.255
1.486,-0.261
1.487,-0.265
1.488,-0.264
1.489,-0.265
1.490,-0.261
1.491,-0.253
1.492,-0.247
1.493,-0.246
1.494,-0.234
1.495,-0.234
1.496,-0.241
1.497,-0.234
1.498,-0.244
1.499,-0.245
1.500,-0.264
1.501,-0.281
1.502,-0.290
1.503,-0.301
1.504,-0.311
1.505,-0.325
1.506,-0.325
1.507,-0.325
1.508,-0.311
1.509,-0.295
1.510,-0.284
1.511,-0.266
1.512,-0.251
1.513,-0.234
1.514,-0.225
1.515,-0.212
1.516,-0.211
1.517,-0.212
1.518,-0.224
1.519,-0.241
1.520,-0.286
1.521,-0.306
1.522,-0.333
1.523,-0.349
1.524,-0.364
1.525,-0.366
1.526,-0.356
1.527,-0.351
1.528,-0.340
1.529,-0.314
1.530,-0.292
1.531,-0.266
1.532,-0.241
1.533,-0.214
1.534,-0.194
1.535,-0.184
1.536,-0.175
1.537,-0.181
1.538,-0.194
1.539,-0.207
1.540,-0.274
1.541,-0.287
1.542,-0.321
1.543,-0.331
1.544,-0.344
1.545,-0.355
1.546,-0.356
1.547,-0.351
1.548,-0.341
1.549,-0.321
1.550,-0.289
1.551,-0.264
1.552,-0.242
1.553,-0.217
1.554,-0.205
1.555,-0.196
1.556,-0.196
1.557,-0.205
1.558,-0.219
1.559,-0.242
1.560,-0.281
1.561,-0.302
1.562,-0.324
1.563,-0.341
1.564,-0.343
1.565,-0.341
1.566,-0.331
1.567,-0.326
1.568,-0.301
1.569,-0.282
1.570,-0.266
1.571,-0.261
1.572,-0.251
1.573,-0.244
1.574,-0.251
1.575,-0.256
1.576,-0.264
1.577,-0.269
1.578,-0.281
1.579,-0.290
1.580,-0.325
1.581,-0.331
1.582,-0.341
1.583,-0.335
1.584,-0.326
1.585,-0.310
1.586,-0.292
1.587,-0.274
1.588,-0.251
1.589,-0.231
1.590,-0.219
1.591,-0.209
1.592,-0.204
1.593,-0.210
1.594,-0.211
1.595,-0.217
1.596,-0.230
1.597,-0.246
1.598,-0.261
1.599,-0.273
1.600,-0.297
1.601,-0.301
1.602,-0.301
1.603,-0.296
1.604,-0.294
1.605,-0.282
1.606,-0.266
1.607,-0.261
1.608,-0.246
1.609,-0.241
1.610,-0.229
1.611,-0.226
1.612,-0.229
1.613,-0.229
1.614,-0.245
1.615,-0.263
1.616,-0.289
1.617,-0.310
1.618,-0.336
1.619,-0.351
1.620,-0.347
1.621,-0.309
1.622,-0.289
1.623,-0.266
1.624,-0.241
1.625,-0.211
1.626,-0.194
1.627,-0.181
1.628,-0.165
1.629,-0.151
1.630,-0.151
1.631,-0.161
1.632,-0.171
1.633,-0.206
1.634,-0.234
1.635,-0.261
1.636,-0.284
1.637,-0.302
1.638,-0.321
1.639,-0.321
1.640,-0.290
1.641,-0.246
1.642,-0.221
1.643,-0.196
1.644,-0.174
1.645,-0.163
1.646,-0.149
1.647,-0.146
1.648,-0.151
1.649,-0.166
1.650,-0.177
1.651,-0.201
1.652,-0.216
1.653,-0.241
1.654,-0.254
1.655,-0.270
1.656,-0.275
1.657,-0.276
1.658,-0.271
1.659,-0.263
1.660,-0.225
1.661,-0.206
1.662,-0.189
1.663,-0.169
1.664,-0.151
1.665,-0.145
1.666,-0.149
1.667,-0.146
1.668,-0.149
1.669,-0.161
1.670,-0.169
1.671,-0.174
1.672,-0.184
1.673,-0.195
1.674,-0.205
1.675,-0.211
1.676,-0.214
1.677,-0.212
1.678,-0.205
1.679,-0.191
1.680,-0.160
1.681,-0.145
1.682,-0.139
1.683,-0.131
1.684,-0.125
1.685,-0.121
1.686,-0.114
1.687,-0.109
1.688,-0.106
1.689,-0.102
1.690,-0.101
1.691,-0.101
1.692,-0.105
1.693,-0.106
1.694,-0.116
1.695,-0.104
1.696,-0.091
1.697,-0.086
1.698,-0.070
1.699,-0.070
1.700,-0.066
1.701,-0.084
1.702,-0.107
1.703,-0.131
1.704,-0.164
1.705,-0.184
1.706,-0.203
1.707,-0.214
1.708,-0.228
1.709,-0.241
1.710,-0.244
1.711,-0.234
1.712,-0.224
1.713,-0.206
1.714,-0.188
1.715,-0.169
1.716,-0.149
1.717,-0.136
1.718,-0.134
1.719,-0.130
1.720,-0.161
1.721,-0.194
1.722,-0.212
1.723,-0.229
1.724,-0.251
1.725,-0.269
1.726,-0.284
1.727,-0.296
1.728,-0.296
1.729,-0.289
1.730,-0.280
1.731,-0.255
1.732,-0.228
1.733,-0.216
1.734,-0.205
1.735,-0.194
1.736,-0.190
1.737,-0.191
1.738,-0.216
1.739,-0.246
1.740,-0.296
1.741,-0.309
1.742,-0.326
1.743,-0.334
1.744,-0.335
1.745,-0.330
1.746,-0.311
1.747,-0.292
1.748,-0.273
1.749,-0.254
1.750,-0.244
1.751,-0.226
1.752,-0.221
1.753,-0.215
1.754,-0.210
1.755,-0.209
1.756,-0.207
1.757,-0.209
1.758,-0.217
1.759,-0.231
1.760,-0.265
1.761,-0.280
1.762,-0.289
1.763,-0.296
1.764,-0.306
1.765,-0.296
1.766,-0.289
1.767,-0.274
1.768,-0.255
1.769,-0.244
1.770,-0.221
1.771,-0.212
1.772,-0.204
1.773,-0.194
1.774,-0.194
1.775,-0.196
1.776,-0.206
1.777,-0.221
1.778,-0.231
1.779,-0.246
1.780,-0.269
1.781,-0.287
1.782,-0.282
1.783,-0.281
1.784,-0.266
1.785,-0.253
1.786,-0.231
1.787,-0.207
1.788,-0.184
1.789,-0.166
1.790,-0.149
1.791,-0.139
1.792,-0.136
1.793,-0.151
1.794,-0.169
1.795,-0.190
1.796,-0.216
1.797,-0.246
1.798,-0.270
1.799,-0.296
1.800,-0.346
1.801,-0.359
1.802,-0.356
1.803,-0.344
1.804,-0.329
1.805,-0.306
1.806,-0.281
1.807,-0.254
1.808,-0.221
1.809,-0.181
1.810,-0.134
1.811,-0.091
1.812,-0.045
1.813,-0.006
1.814,0.049
1.815,0.098
1.816,0.166
1.817,0.239
1.818,0.329
1.819,0.431
1.820,0.831
1.821,1.110
1.822,1.246
1.823,1.448
1.824,1.616
1.825,1.796
1.826,1.974
1.827,2.105
1.828,2.194
1.829,2.144
1.830,2.049
1.831,1.931
1.832,1.749
1.833,1.613
1.834,1.446
1.835,1.290
1.836,1.129
1.837,0.969
1.838,0.816
1.839,0.676
1.840,0.390
1.841,0.233
1.842,0.138
1.843,0.055
1.844,-0.029
1.845,-0.092
1.846,-0.161
1.847,-0.217
1.848,-0.284
1.849,-0.344
1.850,-0.406
1.851,-0.451
1.852,-0.504
1.853,-0.539
1.854,-0.570
1.855,-0.589
1.856,-0.604
1.857,-0.606
1.858,-0.595
1.859,-0.571
1.860,-0.494
1.861,-0.453
1.862,-0.416
1.863,-0.381
1.864,-0.362
1.865,-0.351
1.866,-0.351
1.867,-0.351
1.868,-0.355
1.869,-0.365
1.870,-0.374
1.871,-0.384
1.872,-0.355
1.873,-0.378
1.874,-0.367
1.875,-0.354
1.876,-0.341
1.877,-0.324
1.878,-0.304
1.879,-0.289
1.880,-0.264
1.881,-0.249
1.882,-0.242
1.883,-0.241
1.884,-0.244
1.885,-0.245
1.886,-0.255
1.887,-0.266
1.888,-0.286
1.889,-0.297
1.890,-0.309
1.891,-0.309
1.892,-0.309
1.893,-0.304
1.894,-0.299
1.895,-0.287
1.896,-0.274
1.897,-0.256
1.898,-0.245
1.899,-0.224
1.900,-0.186
1.901,-0.181
1.902,-0.184
1.903,-0.184
1.904,-0.209
1.905,-0.226
1.906,-0.251
1.907,-0.274
1.908,-0.289
1.909,-0.302
1.910,-0.309
1.911,-0.311
1.912,-0.287
1.913,-0.271
1.914,-0.254
1.915,-0.224
1.916,-0.194
1.917,-0.184
1.918,-0.170
1.919,-0.168
1.920,-0.181
1.921,-0.190
1.922,-0.206
1.923,-0.221
1.924,-0.233
1.925,-0.247
1.926,-0.253
1.927,-0.261
1.928,-0.266
1.929,-0.263
1.930,-0.263
1.931,-0.261
1.932,-0.254
1.933,-0.244
1.934,-0.216
1.935,-0.191
1.936,-0.168
1.937,-0.144
1.938,-0.130
1.939,-0.126
1.940,-0.150
1.941,-0.170
1.942,-0.189
1.943,-0.212
1.944,-0.224
1.945,-0.226
1.946,-0.231
1.947,-0.229
1.948,-0.216
1.949,-0.204
1.950,-0.191
1.951,-0.174
1.952,-0.161
1.953,-0.141
1.954,-0.135
1.955,-0.129
1.956,-0.130
1.957,-0.141
1.958,-0.150
1.959,-0.166
1.960,-0.186
1.961,-0.194
1.962,-0.249
1.963,-0.204
1.964,-0.203
1.965,-0.196
1.966,-0.186
1.967,-0.171
1.968,-0.147
1.969,-0.126
1.970,-0.105
1.971,-0.086
1.972,-0.070
1.973,-0.056
1.974,-0.050
1.975,-0.050
1.976,-0.059
1.977,-0.070
1.978,-0.087
1.979,-0.107
1.980,-0.147
1.981,-0.164
1.982,-0.170
1.983,-0.174
1.984,-0.174
1.985,-0.170
1.986,-0.166
1.987,-0.151
1.988,-0.136
1.989,-0.122
1.990,-0.096
1.991,-0.081
1.992,-0.064
1.993,-0.051
1.994,-0.045
1.995,-0.050
1.996,-0.054
1.997,-0.071
1.998,-0.086
1.999,-0.111
2.000,-0.141
2.001,-0.146
2.002,-0.147
2.003,-0.141
2.004,-0.131
2.005,-0.116
2.006,-0.100
2.007,-0.086
2.008,-0.069
2.009,-0.051
2.010,-0.031
2.011,-0.021
2.012,-0.010
2.013,-0.006
2.014,-0.010
2.015,-0.022
2.016,-0.044
2.017,-0.059
2.018,-0.089
2.019,-0.111
2.020,-0.149
2.021,-0.154
2.022,-0.163
2.023,-0.151
2.024,-0.131
2.025,-0.110
2.026,-0.081
2.027,-0.046
2.028,-0.014
2.029,0.016
2.030,0.044
2.031,0.059
2.032,0.071
2.033,0.071
2.034,0.064
2.035,0.049
2.036,0.024
2.037,-0.011
2.038,-0.037
2.039,-0.068
2.040,-0.115
2.041,-0.116
2.042,-0.115
2.043,-0.096
2.044,-0.074
2.045,-0.051
2.046,-0.026
2.047,0.009
2.048,0.030
2.049,0.056
2.050,0.072
2.051,0.075
2.052,0.069
2.053,0.056
2.054,0.036
2.055,0.024
2.056,-0.005
2.057,-0.021
2.058,-0.029
2.059,-0.031
2.060,-0.030
2.061,-0.014
2.062,0.007
2.063,0.019
2.064,0.031
2.065,0.044
2.066,0.046
2.067,0.048
2.068,0.039
2.069,0.031
2.070,0.010
2.071,-0.014
2.072,-0.041
2.073,-0.056
2.074,-0.086
2.075,-0.106
2.076,-0.122
2.077,-0.134
2.078,-0.142
2.079,-0.145
2.080,-0.131
2.081,-0.121
2.082,-0.096
2.083,-0.075
2.084,-0.062
2.085,-0.049
2.086,-0.016
2.087,-0.046
2.088,-0.055
2.089,-0.071
2.090,-0.094
2.091,-0.116
2.092,-0.145
2.093,-0.171
2.094,-0.191
2.095,-0.210
2.096,-0.224
2.097,-0.230
2.098,-0.231
2.099,-0.234
2.100,-0.226
2.101,-0.224
2.102,-0.212
2.103,-0.209
2.104,-0.209
2.105,-0.203
2.106,-0.214
2.107,-0.229
2.108,-0.253
2.109,-0.274
2.110,-0.304
2.111,-0.331
2.112,-0.351
2.113,-0.369
2.114,-0.381
2.115,-0.390
2.116,-0.389
2.117,-0.376
2.118,-0.365
2.119,-0.346
2.120,-0.306
2.121,-0.290
2.122,-0.274
2.123,-0.271
2.124,-0.271
2.125,-0.289
2.126,-0.309
2.127,-0.340
2.128,-0.371
2.129,-0.410
2.130,-0.440
2.131,-0.468
2.132,-0.494
2.133,-0.509
2.134,-0.515
2.135,-0.520
2.136,-0.506
2.137,-0.484
2.138,-0.444
2.139,-0.406
2.140,-0.334
2.141,-0.321
2.142,-0.305
2.143,-0.305
2.144,-0.309
2.145,-0.330
2.146,-0.352
2.147,-0.381
2.148,-0.412
2.149,-0.440
2.150,-0.459
2.151,-0.471
2.152,-0.486
2.153,-0.491
2.154,-0.491
2.155,-0.484
2.156,-0.465
2.157,-0.449
2.158,-0.425
2.159,-0.404
2.160,-0.354
2.161,-0.349
2.162,-0.349
2.163,-0.354
2.164,-0.371
2.165,-0.391
2.166,-0.421
2.167,-0.445
2.168,-0.469
2.169,-0.495
2.170,-0.509
2.171,-0.525
2.172,-0.524
2.173,-0.519
2.174,-0.506
2.175,-0.494
2.176,-0.471
2.177,-0.451
2.178,-0.431
2.179,-0.449
2.180,-0.401
2.181,-0.394
2.182,-0.406
2.183,-0.422
2.184,-0.440
2.185,-0.461
2.186,-0.486
2.187,-0.504
2.188,-0.524
2.189,-0.534
2.190,-0.545
2.191,-0.544
2.192,-0.531
2.193,-0.520
2.194,-0.504
2.195,-0.484
2.196,-0.461
2.197,-0.441
2.198,-0.421
2.199,-0.411
2.200,-0.415
2.201,-0.426
2.202,-0.444
2.203,-0.446
2.204,-0.461
2.205,-0.480
2.206,-0.494
2.207,-0.504
2.208,-0.510
2.209,-0.509
2.210,-0.494
2.211,-0.474
2.212,-0.456
2.213,-0.430
2.214,-0.410
2.215,-0.390
2.216,-0.371
2.217,-0.364
2.218,-0.357
2.219,-0.366
2.220,-0.400
2.221,-0.446
2.222,-0.458
2.223,-0.474
2.224,-0.485
2.225,-0.501
2.226,-0.496
2.227,-0.492
2.228,-0.486
2.229,-0.470
2.230,-0.453
2.231,-0.434
2.232,-0.416
2.233,-0.384
2.234,-0.364
2.235,-0.345
2.236,-0.336
2.237,-0.334
2.238,-0.344
2.239,-0.364
2.240,-0.422
2.241,-0.451
2.242,-0.468
2.243,-0.481
2.244,-0.494
2.245,-0.496
2.246,-0.501
2.247,-0.496
2.248,-0.486
2.249,-0.469
2.250,-0.449
2.251,-0.424
2.252,-0.401
2.253,-0.376
2.254,-0.366
2.255,-0.356
2.256,-0.361
2.257,-0.370
2.258,-0.388
2.259,-0.406
2.260,-0.436
2.261,-0.446
2.262,-0.449
2.263,-0.446
2.264,-0.434
2.265,-0.427
2.266,-0.407
2.267,-0.389
2.268,-0.371
2.269,-0.356
2.270,-0.346
2.271,-0.331
2.272,-0.314
2.273,-0.306
2.274,-0.304
2.275,-0.304
2.276,-0.310
2.277,-0.325
2.278,-0.341
2.279,-0.357
2.280,-0.406
2.281,-0.441
2.282,-0.449
2.283,-0.451
2.284,-0.441
2.285,-0.409
2.286,-0.391
2.287,-0.371
2.288,-0.349
2.289,-0.330
2.290,-0.325
2.291,-0.321
2.292,-0.333
2.293,-0.354
2.294,-0.369
2.295,-0.390
2.296,-0.406
2.297,-0.421
2.298,-0.445
2.299,-0.443
2.300,-0.426
2.301,-0.390
2.302,-0.374
2.303,-0.364
2.304,-0.349
2.305,-0.346
2.306,-0.346
2.307,-0.351
2.308,-0.362
2.309,-0.384
2.310,-0.401
2.311,-0.425
2.312,-0.444
2.313,-0.451
2.314,-0.456
2.315,-0.449
2.316,-0.444
2.317,-0.434
2.318,-0.421
2.319,-0.405
2.320,-0.372
2.321,-0.356
2.322,-0.344
2.323,-0.329
2.324,-0.324
2.325,-0.321
2.326,-0.328
2.327,-0.343
2.328,-0.364
2.329,-0.386
2.330,-0.410
2.331,-0.426
2.332,-0.436
2.333,-0.445
2.334,-0.446
2.335,-0.446
2.336,-0.431
2.337,-0.421
2.338,-0.406
2.339,-0.389
2.340,-0.365
2.341,-0.356
2.342,-0.355
2.343,-0.350
2.344,-0.351
2.345,-0.364
2.346,-0.374
2.347,-0.388
2.348,-0.414
2.349,-0.429
2.350,-0.443
2.351,-0.454
2.352,-0.464
2.353,-0.466
2.354,-0.466
2.355,-0.461
2.356,-0.451
2.357,-0.436
2.358,-0.425
2.359,-0.411
2.360,-0.388
2.361,-0.381
2.362,-0.386
2.363,-0.401
2.364,-0.414
2.365,-0.436
2.366,-0.450
2.367,-0.465
2.368,-0.474
2.369,-0.481
2.370,-0.471
2.371,-0.466
2.372,-0.455
2.373,-0.444
2.374,-0.426
2.375,-0.414
2.376,-0.391
2.377,-0.376
2.378,-0.366
2.379,-0.356
2.380,-0.346
2.381,-0.346
2.382,-0.349
2.383,-0.370
2.384,-0.385
2.385,-0.404
2.386,-0.410
2.387,-0.416
2.388,-0.484
2.389,-0.371
2.390,-0.421
2.391,-0.411
2.392,-0.404
2.393,-0.384
2.394,-0.365
2.395,-0.343
2.396,-0.326
2.397,-0.307
2.398,-0.296
2.399,-0.284
2.400,-0.270
2.401,-0.281
2.402,-0.296
2.403,-0.311
2.404,-0.343
2.405,-0.364
2.406,-0.384
2.407,-0.405
2.408,-0.414
2.409,-0.416
2.410,-0.409
2.411,-0.389
2.412,-0.369
2.413,-0.336
2.414,-0.309
2.415,-0.289
2.416,-0.281
2.417,-0.271
2.418,-0.270
2.419,-0.274
2.420,-0.286
2.421,-0.307
2.422,-0.321
2.423,-0.334
2.424,-0.346
2.425,-0.354
2.426,-0.356
2.427,-0.351
2.428,-0.344
2.429,-0.329
2.430,-0.297
2.431,-0.276
2.432,-0.256
2.433,-0.244
2.434,-0.228
2.435,-0.224
2.436,-0.226
2.437,-0.241
2.438,-0.253
2.439,-0.274
2.440,-0.321
2.441,-0.335
2.442,-0.347
2.443,-0.354
2.444,-0.355
2.445,-0.351
2.446,-0.341
2.447,-0.314
2.448,-0.294
2.449,-0.276
2.450,-0.204
2.451,-0.231
2.452,-0.223
2.453,-0.216
2.454,-0.210
2.455,-0.210
2.456,-0.209
2.457,-0.216
2.458,-0.226
2.459,-0.247
2.460,-0.284
2.461,-0.289
2.462,-0.296
2.463,-0.304
2.464,-0.304
2.465,-0.304
2.466,-0.296
2.467,-0.291
2.468,-0.287
2.469,-0.281
2.470,-0.274
2.471,-0.271
2.472,-0.264
2.473,-0.256
2.474,-0.250
2.475,-0.245
2.476,-0.246
2.477,-0.249
2.478,-0.266
2.479,-0.289
2.480,-0.321
2.481,-0.334
2.482,-0.333
2.483,-0.326
2.484,-0.289
2.485,-0.255
2.486,-0.244
2.487,-0.215
2.488,-0.201
2.489,-0.186
2.490,-0.176
2.491,-0.181
2.492,-0.185
2.493,-0.195
2.494,-0.209
2.495,-0.224
2.496,-0.244
2.497,-0.255
2.498,-0.271
2.499,-0.276
2.500,-0.284
2.501,-0.284
2.502,-0.274
2.503,-0.265
2.504,-0.253
2.505,-0.244
2.506,-0.225
2.507,-0.211
2.508,-0.204
2.509,-0.193
2.510,-0.196
2.511,-0.203
2.512,-0.211
2.513,-0.226
2.514,-0.241
2.515,-0.253
2.516,-0.264
2.517,-0.270
2.518,-0.271
2.519,-0.274
2.520,-0.269
2.521,-0.255
2.522,-0.247
2.523,-0.230
2.524,-0.216
2.525,-0.206
2.526,-0.194
2.527,-0.194
2.528,-0.196
2.529,-0.206
2.530,-0.216
2.531,-0.231
2.532,-0.249
2.533,-0.264
2.534,-0.276
2.535,-0.291
2.536,-0.302
2.537,-0.299
2.538,-0.291
2.539,-0.284
2.540,-0.261
2.541,-0.251
2.542,-0.246
2.543,-0.231
2.544,-0.224
2.545,-0.216
2.546,-0.206
2.547,-0.194
2.548,-0.204
2.549,-0.211
2.550,-0.230
2.551,-0.241
2.552,-0.254
2.553,-0.265
2.554,-0.270
2.555,-0.271
2.556,-0.269
2.557,-0.266
2.558,-0.263
2.559,-0.249
2.560,-0.209
2.561,-0.194
2.562,-0.184
2.563,-0.172
2.564,-0.166
2.565,-0.169
2.566,-0.180
2.567,-0.194
2.568,-0.214
2.569,-0.244
2.570,-0.275
2.571,-0.296
2.572,-0.306
2.573,-0.307
2.574,-0.305
2.575,-0.301
2.576,-0.301
2.577,-0.294
2.578,-0.292
2.579,-0.289
2.580,-0.249
2.581,-0.224
2.582,-0.205
2.583,-0.186
2.584,-0.176
2.585,-0.186
2.586,-0.195
2.587,-0.211
2.588,-0.231
2.589,-0.255
2.590,-0.274
2.591,-0.286
2.592,-0.291
2.593,-0.285
2.594,-0.271
2.595,-0.254
2.596,-0.229
2.597,-0.205
2.598,-0.181
2.599,-0.152
2.600,-0.124
2.601,-0.131
2.602,-0.141
2.603,-0.154
2.604,-0.185
2.605,-0.209
2.606,-0.241
2.607,-0.266
2.608,-0.284
2.609,-0.290
2.610,-0.282
2.611,-0.271
2.612,-0.255
2.613,-0.242
2.614,-0.229
2.615,-0.214
2.616,-0.198
2.617,-0.188
2.618,-0.174
2.619,-0.166
2.620,-0.169
2.621,-0.171
2.622,-0.190
2.623,-0.210
2.624,-0.246
2.625,-0.276
2.626,-0.311
2.627,-0.346
2.628,-0.370
2.629,-0.384
2.630,-0.384
2.631,-0.381
2.632,-0.375
2.633,-0.414
2.634,-0.346
2.635,-0.335
2.636,-0.324
2.637,-0.305
2.638,-0.301
2.639,-0.290
2.640,-0.299
2.641,-0.311
2.642,-0.329
2.643,-0.346
2.644,-0.364
2.645,-0.388
2.646,-0.404
2.647,-0.416
2.648,-0.429
2.649,-0.440
2.650,-0.429
2.651,-0.421
2.652,-0.404
2.653,-0.376
2.654,-0.365
2.655,-0.344
2.656,-0.329
2.657,-0.311
2.658,-0.306
2.659,-0.306
2.660,-0.328
2.661,-0.367
2.662,-0.385
2.663,-0.412
2.664,-0.427
2.665,-0.444
2.666,-0.448
2.667,-0.451
2.668,-0.451
2.669,-0.441
2.670,-0.431
2.671,-0.415
2.672,-0.404
2.673,-0.389
2.674,-0.374
2.675,-0.371
2.676,-0.367
2.677,-0.366
2.678,-0.367
2.679,-0.376
2.680,-0.404
2.681,-0.432
2.682,-0.449
2.683,-0.463
2.684,-0.471
2.685,-0.482
2.686,-0.489
2.687,-0.484
2.688,-0.469
2.689,-0.449
2.690,-0.424
2.691,-0.393
2.692,-0.366
2.693,-0.346
2.694,-0.324
2.695,-0.309
2.696,-0.309
2.697,-0.312
2.698,-0.329
2.699,-0.343
2.700,-0.385
2.701,-0.401
2.702,-0.407
2.703,-0.411
2.704,-0.414
2.705,-0.409
2.706,-0.401
2.707,-0.389
2.708,-0.371
2.709,-0.366
2.710,-0.354
2.711,-0.349
2.712,-0.345
2.713,-0.346
2.714,-0.354
2.715,-0.361
2.716,-0.366
2.717,-0.384
2.718,-0.405
2.719,-0.424
2.720,-0.446
2.721,-0.449
2.722,-0.446
2.723,-0.427
2.724,-0.458
2.725,-0.354
2.726,-0.295
2.727,-0.231
2.728,-0.161
2.729,-0.071
2.730,0.029
2.731,0.133
2.732,0.239
2.733,0.360
2.734,0.471
2.735,0.590
2.736,0.709
2.737,0.821
2.738,0.936
2.739,1.056
2.740,1.347
2.741,1.459
2.742,1.594
2.743,1.719
2.744,1.819
2.745,1.889
2.746,1.911
2.747,1.897
2.748,1.851
2.749,1.776
2.750,1.671
2.751,1.551
2.752,1.409
2.753,1.249
2.754,1.077
2.755,0.907
2.756,0.719
2.757,0.469
2.758,0.346
2.759,0.186
2.760,-0.124
2.761,-0.215
2.762,-0.314
2.763,-0.389
2.764,-0.449
2.765,-0.496
2.766,-0.536
2.767,-0.573
2.768,-0.604
2.769,-0.629
2.770,-0.654
2.771,-0.675
2.772,-0.696
2.773,-0.724
2.774,-0.734
2.775,-0.750
2.776,-0.756
2.777,-0.762
2.778,-0.764
2.779,-0.751
2.780,-0.734
2.781,-0.711
2.782,-0.693
2.783,-0.664
2.784,-0.629
2.785,-0.606
2.786,-0.589
2.787,-0.574
2.788,-0.546
2.789,-0.554
2.790,-0.544
2.791,-0.529
2.792,-0.516
2.793,-0.506
2.794,-0.501
2.795,-0.506
2.796,-0.514
2.797,-0.529
2.798,-0.544
2.799,-0.554
2.800,-0.570
2.801,-0.564
2.802,-0.554
2.803,-0.537
2.804,-0.526
2.805,-0.507
2.806,-0.496
2.807,-0.482
2.808,-0.474
2.809,-0.468
2.810,-0.469
2.811,-0.471
2.812,-0.474
2.813,-0.501
2.814,-0.514
2.815,-0.526
2.816,-0.545
2.817,-0.564
2.818,-0.574
2.819,-0.586
2.820,-0.581
2.821,-0.576
2.822,-0.568
2.823,-0.547
2.824,-0.531
2.825,-0.510
2.826,-0.501
2.827,-0.489
2.828,-0.482
2.829,-0.471
2.830,-0.470
2.831,-0.482
2.832,-0.490
2.833,-0.504
2.834,-0.516
2.835,-0.526
2.836,-0.541
2.837,-0.546
2.838,-0.554
2.839,-0.552
2.840,-0.524
2.841,-0.489
2.842,-0.471
2.843,-0.455
2.844,-0.444
2.845,-0.431
2.846,-0.426
2.847,-0.429
2.848,-0.431
2.849,-0.446
2.850,-0.509
2.851,-0.491
2.852,-0.514
2.853,-0.532
2.854,-0.550
2.855,-0.552
2.856,-0.555
2.857,-0.554
2.858,-0.542
2.859,-0.524
2.860,-0.481
2.861,-0.464
2.862,-0.449
2.863,-0.434
2.864,-0.429
2.865,-0.427
2.866,-0.431
2.867,-0.441
2.868,-0.454
2.869,-0.466
2.870,-0.486
2.871,-0.505
2.872,-0.525
2.873,-0.544
2.874,-0.561
2.875,-0.564
2.876,-0.566
2.877,-0.555
2.878,-0.546
2.879,-0.535
2.880,-0.492
2.881,-0.474
2.882,-0.455
2.883,-0.431
2.884,-0.411
2.885,-0.404
2.886,-0.405
2.887,-0.407
2.888,-0.414
2.889,-0.422
2.890,-0.426
2.891,-0.434
2.892,-0.444
2.893,-0.445
2.894,-0.445
2.895,-0.441
2.896,-0.431
2.897,-0.422
2.898,-0.406
2.899,-0.385
2.900,-0.345
2.901,-0.331
2.902,-0.321
2.903,-0.310
2.904,-0.309
2.905,-0.306
2.906,-0.310
2.907,-0.325
2.908,-0.334
2.909,-0.344
2.910,-0.347
2.911,-0.351
2.912,-0.356
2.913,-0.366
2.914,-0.366
2.915,-0.364
2.916,-0.354
2.917,-0.336
2.918,-0.324
2.919,-0.301
2.920,-0.266
2.921,-0.256
2.922,-0.255
2.923,-0.254
2.924,-0.265
2.925,-0.274
2.926,-0.286
2.927,-0.302
2.928,-0.321
2.929,-0.336
2.930,-0.349
2.931,-0.361
2.932,-0.369
2.933,-0.366
2.934,-0.362
2.935,-0.351
2.936,-0.335
2.937,-0.311
2.938,-0.294
2.939,-0.273
2.940,-0.247
2.941,-0.245
2.942,-0.270
2.943,-0.264
2.944,-0.281
2.945,-0.294
2.946,-0.304
2.947,-0.320
2.948,-0.326
2.949,-0.326
2.950,-0.328
2.951,-0.321
2.952,-0.306
2.953,-0.290
2.954,-0.273
2.955,-0.251
2.956,-0.224
2.957,-0.204
2.958,-0.184
2.959,-0.170
2.960,-0.165
2.961,-0.164
2.962,-0.169
2.963,-0.182
2.964,-0.188
2.965,-0.201
2.966,-0.211
2.967,-0.217
2.968,-0.226
2.969,-0.229
2.970,-0.228
2.971,-0.215
2.972,-0.206
2.973,-0.189
2.974,-0.170
2.975,-0.165
2.976,-0.135
2.977,-0.124
2.978,-0.114
2.979,-0.109
2.980,-0.130
2.981,-0.164
2.982,-0.184
2.983,-0.206
2.984,-0.214
2.985,-0.226
2.986,-0.230
2.987,-0.230
2.988,-0.228
2.989,-0.219
2.990,-0.215
2.991,-0.207
2.992,-0.196
2.993,-0.190
2.994,-0.174
2.995,-0.161
2.996,-0.144
2.997,-0.126
2.998,-0.113
2.999,-0.106
3.000,-0.111
3.001,-0.130
3.002,-0.145
3.003,-0.154
3.004,-0.154
3.005,-0.170
3.006,-0.169
3.007,-0.164
3.008,-0.149
3.009,-0.136
3.010,-0.124
3.011,-0.114
3.012,-0.100
3.013,-0.089
3.014,-0.089
3.015,-0.086
3.016,-0.094
3.017,-0.105
3.018,-0.124
3.019,-0.144
3.020,-0.204
3.021,-0.226
3.022,-0.251
3.023,-0.270
3.024,-0.284
3.025,-0.289
3.026,-0.290
3.027,-0.290
3.028,-0.274
3.029,-0.256
3.030,-0.231
3.031,-0.214
3.032,-0.204
3.033,-0.190
3.034,-0.190
3.035,-0.196
3.036,-0.210
3.037,-0.229
3.038,-0.249
3.039,-0.274
3.040,-0.329
3.041,-0.345
3.042,-0.340
3.043,-0.341
3.044,-0.336
3.045,-0.330
3.046,-0.324
3.047,-0.307
3.048,-0.289
3.049,-0.266
3.050,-0.251
3.051,-0.241
3.052,-0.223
3.053,-0.217
3.054,-0.221
3.055,-0.226
3.056,-0.241
3.057,-0.261
3.058,-0.280
3.059,-0.286
3.060,-0.306
3.061,-0.314
3.062,-0.324
3.063,-0.314
3.064,-0.311
3.065,-0.304
3.066,-0.290
3.067,-0.284
3.068,-0.263
3.069,-0.249
3.070,-0.231
3.071,-0.226
3.072,-0.225
3.073,-0.241
3.074,-0.254
3.075,-0.271
3.076,-0.304
3.077,-0.334
3.078,-0.361
3.079,-0.385
3.080,-0.426
3.081,-0.435
3.082,-0.434
3.083,-0.426
3.084,-0.409
3.085,-0.384
3.086,-0.361
3.087,-0.341
3.088,-0.323
3.089,-0.296
3.090,-0.281
3.091,-0.275
3.092,-0.274
3.093,-0.286
3.094,-0.301
3.095,-0.325
3.096,-0.350
3.097,-0.371
3.098,-0.391
3.099,-0.410
3.100,-0.414
3.101,-0.401
3.102,-0.384
3.103,-0.366
3.104,-0.346
3.105,-0.333
3.106,-0.314
3.107,-0.296
3.108,-0.286
3.109,-0.275
3.110,-0.276
3.111,-0.281
3.112,-0.289
3.113,-0.306
3.114,-0.326
3.115,-0.345
3.116,-0.369
3.117,-0.386
3.118,-0.406
3.119,-0.414
3.120,-0.430
3.121,-0.431
3.122,-0.424
3.123,-0.412
3.124,-0.400
3.125,-0.386
3.126,-0.371
3.127,-0.366
3.128,-0.354
3.129,-0.394
3.130,-0.356
3.131,-0.361
3.132,-0.361
3.133,-0.374
3.134,-0.381
3.135,-0.394
3.136,-0.409
3.137,-0.414
3.138,-0.421
3.139,-0.426
3.140,-0.409
3.141,-0.391
3.142,-0.369
3.143,-0.346
3.144,-0.329
3.145,-0.309
3.146,-0.295
3.147,-0.286
3.148,-0.281
3.149,-0.281
3.150,-0.281
3.151,-0.289
3.152,-0.304
3.153,-0.324
3.154,-0.341
3.155,-0.356
3.156,-0.375
3.157,-0.389
3.158,-0.406
3.159,-0.411
3.160,-0.391
3.161,-0.384
3.162,-0.366
3.163,-0.351
3.164,-0.331
3.165,-0.310
3.166,-0.296
3.167,-0.289
3.168,-0.286
3.169,-0.290
3.170,-0.295
3.171,-0.311
3.172,-0.334
3.173,-0.354
3.174,-0.374
3.175,-0.391
3.176,-0.406
3.177,-0.411
3.178,-0.410
3.179,-0.405
3.180,-0.366
3.181,-0.350
3.182,-0.331
3.183,-0.321
3.184,-0.301
3.185,-0.291
3.186,-0.290
3.187,-0.291
3.188,-0.305
3.189,-0.325
3.190,-0.346
3.191,-0.362
3.192,-0.383
3.193,-0.405
3.194,-0.411
3.195,-0.412
3.196,-0.411
3.197,-0.401
3.198,-0.385
3.199,-0.367
3.200,-0.326
3.201,-0.290
3.202,-0.284
3.203,-0.285
3.204,-0.284
3.205,-0.290
3.206,-0.301
3.207,-0.324
3.208,-0.346
3.209,-0.366
3.210,-0.384
3.211,-0.401
3.212,-0.406
3.213,-0.414
3.214,-0.412
3.215,-0.412
3.216,-0.410
3.217,-0.394
3.218,-0.383
3.219,-0.366
3.220,-0.323
3.221,-0.297
3.222,-0.285
3.223,-0.271
3.224,-0.268
3.225,-0.269
3.226,-0.284
3.227,-0.304
3.228,-0.324
3.229,-0.345
3.230,-0.365
3.231,-0.384
3.232,-0.401
3.233,-0.404
3.234,-0.406
3.235,-0.401
3.236,-0.388
3.237,-0.378
3.238,-0.362
3.239,-0.350
3.240,-0.335
3.241,-0.326
3.242,-0.321
3.243,-0.306
3.244,-0.296
3.245,-0.292
3.246,-0.297
3.247,-0.309
3.248,-0.326
3.249,-0.344
3.250,-0.364
3.251,-0.374
3.252,-0.383
3.253,-0.386
3.254,-0.389
3.255,-0.381
3.256,-0.367
3.257,-0.349
3.258,-0.334
3.259,-0.312
3.260,-0.286
3.261,-0.280
3.262,-0.281
3.263,-0.281
3.264,-0.296
3.265,-0.311
3.266,-0.341
3.267,-0.361
3.268,-0.384
3.269,-0.406
3.270,-0.424
3.271,-0.436
3.272,-0.444
3.273,-0.445
3.274,-0.441
3.275,-0.431
3.276,-0.411
3.277,-0.389
3.278,-0.369
3.279,-0.355
3.280,-0.323
3.281,-0.312
3.282,-0.323
3.283,-0.326
3.284,-0.343
3.285,-0.329
3.286,-0.374
3.287,-0.403
3.288,-0.414
3.289,-0.426
3.290,-0.436
3.291,-0.441
3.292,-0.435
3.293,-0.429
3.294,-0.409
3.295,-0.391
3.296,-0.383
3.297,-0.371
3.298,-0.366
3.299,-0.364
3.300,-0.354
3.301,-0.356
3.302,-0.361
3.303,-0.366
3.304,-0.371
3.305,-0.381
3.306,-0.386
3.307,-0.403
3.308,-0.406
3.309,-0.412
3.310,-0.416
3.311,-0.421
3.312,-0.416
3.313,-0.407
3.314,-0.391
3.315,-0.384
3.316,-0.369
3.317,-0.349
3.318,-0.376
3.319,-0.330
3.320,-0.324
3.321,-0.329
3.322,-0.335
3.323,-0.352
3.324,-0.375
3.325,-0.400
3.326,-0.417
3.327,-0.440
3.328,-0.454
3.329,-0.468
3.330,-0.474
3.331,-0.469
3.332,-0.455
3.333,-0.436
3.334,-0.416
3.335,-0.389
3.336,-0.369
3.337,-0.346
3.338,-0.330
3.339,-0.324
3.340,-0.329
3.341,-0.335
3.342,-0.349
3.343,-0.370
3.344,-0.384
3.345,-0.401
3.346,-0.416
3.347,-0.425
3.348,-0.434
3.349,-0.435
3.350,-0.434
3.351,-0.429
3.352,-0.409
3.353,-0.381
3.354,-0.354
3.355,-0.323
3.356,-0.296
3.357,-0.286
3.358,-0.282
3.359,-0.286
3.360,-0.325
3.361,-0.340
3.362,-0.356
3.363,-0.367
3.364,-0.374
3.365,-0.386
3.366,-0.386
3.367,-0.391
3.368,-0.389
3.369,-0.384
3.370,-0.371
3.371,-0.356
3.372,-0.334
3.373,-0.326
3.374,-0.309
3.375,-0.304
3.376,-0.307
3.377,-0.324
3.378,-0.331
3.379,-0.349
3.380,-0.407
3.381,-0.432
3.382,-0.446
3.383,-0.451
3.384,-0.458
3.385,-0.464
3.386,-0.454
3.387,-0.445
3.388,-0.424
3.389,-0.410
3.390,-0.385
3.391,-0.371
3.392,-0.351
3.393,-0.334
3.394,-0.314
3.395,-0.304
3.396,-0.299
3.397,-0.295
3.398,-0.302
3.399,-0.311
3.400,-0.344
3.401,-0.364
3.402,-0.366
3.403,-0.369
3.404,-0.370
3.405,-0.361
3.406,-0.346
3.407,-0.330
3.408,-0.302
3.409,-0.276
3.410,-0.254
3.411,-0.241
3.412,-0.224
3.413,-0.221
3.414,-0.225
3.415,-0.241
3.416,-0.255
3.417,-0.281
3.418,-0.304
3.419,-0.329
3.420,-0.355
3.421,-0.354
3.422,-0.356
3.423,-0.354
3.424,-0.346
3.425,-0.331
3.426,-0.309
3.427,-0.289
3.428,-0.270
3.429,-0.255
3.430,-0.234
3.431,-0.224
3.432,-0.214
3.433,-0.210
3.434,-0.211
3.435,-0.215
3.436,-0.229
3.437,-0.249
3.438,-0.269
3.439,-0.291
3.440,-0.321
3.441,-0.351
3.442,-0.354
3.443,-0.355
3.444,-0.349
3.445,-0.341
3.446,-0.329
3.447,-0.311
3.448,-0.296
3.449,-0.289
3.450,-0.285
3.451,-0.286
3.452,-0.290
3.453,-0.306
3.454,-0.329
3.455,-0.354
3.456,-0.376
3.457,-0.405
3.458,-0.416
3.459,-0.435
3.460,-0.464
3.461,-0.464
3.462,-0.454
3.463,-0.445
3.464,-0.429
3.465,-0.406
3.466,-0.376
3.467,-0.366
3.468,-0.354
3.469,-0.345
3.470,-0.330
3.471,-0.326
3.472,-0.329
3.473,-0.341
3.474,-0.357
3.475,-0.383
3.476,-0.406
3.477,-0.424
3.478,-0.434
3.479,-0.444
3.480,-0.424
3.481,-0.411
3.482,-0.383
3.483,-0.365
3.484,-0.340
3.485,-0.326
3.486,-0.309
3.487,-0.296
3.488,-0.294
3.489,-0.296
3.490,-0.311
3.491,-0.329
3.492,-0.349
3.493,-0.371
3.494,-0.391
3.495,-0.410
3.496,-0.424
3.497,-0.430
3.498,-0.434
3.499,-0.430
3.500,-0.406
3.501,-0.388
3.502,-0.405
3.503,-0.349
3.504,-0.333
3.505,-0.323
3.506,-0.309
3.507,-0.306
3.508,-0.310
3.509,-0.311
3.510,-0.329
3.511,-0.345
3.512,-0.364
3.513,-0.384
3.514,-0.405
3.515,-0.415
3.516,-0.425
3.517,-0.425
3.518,-0.421
3.519,-0.410
3.520,-0.381
3.521,-0.364
3.522,-0.331
3.523,-0.312
3.524,-0.304
3.525,-0.291
3.526,-0.291
3.527,-0.295
3.528,-0.310
3.529,-0.333
3.530,-0.351
3.531,-0.376
3.532,-0.404
3.533,-0.420
3.534,-0.444
3.535,-0.441
3.536,-0.444
3.537,-0.443
3.538,-0.441
3.539,-0.435
3.540,-0.424
3.541,-0.424
3.542,-0.425
3.543,-0.426
3.544,-0.426
3.545,-0.426
3.546,-0.426
3.547,-0.421
3.548,-0.416
3.549,-0.411
3.550,-0.394
3.551,-0.369
3.552,-0.341
3.553,-0.296
3.554,-0.246
3.555,-0.176
3.556,-0.096
3.557,-0.004
3.558,0.106
3.559,0.217
3.560,0.474
3.561,0.581
3.562,0.711
3.563,0.797
3.564,0.922
3.565,1.039
3.566,1.166
3.567,1.301
3.568,1.436
3.569,1.576
3.570,1.711
3.571,1.810
3.572,1.869
3.573,1.884
3.574,1.861
3.575,1.796
3.576,1.710
3.577,1.607
3.578,1.488
3.579,1.357
3.580,1.036
3.581,0.909
3.582,0.738
3.583,0.568
3.584,0.391
3.585,0.224
3.586,0.058
3.587,-0.104
3.588,-0.234
3.589,-0.354
3.590,-0.456
3.591,-0.539
3.592,-0.609
3.593,-0.661
3.594,-0.694
3.595,-0.713
3.596,-0.725
3.597,-0.729
3.598,-0.724
3.599,-0.723
3.600,-0.709
3.601,-0.704
3.602,-0.701
3.603,-0.694
3.604,-0.693
3.605,-0.695
3.606,-0.689
3.607,-0.688
3.608,-0.689
3.609,-0.688
3.610,-0.684
3.611,-0.667
3.612,-0.649
3.613,-0.614
3.614,-0.589
3.615,-0.565
3.616,-0.544
3.617,-0.529
3.618,-0.517
3.619,-0.509
3.620,-0.510
3.621,-0.511
3.622,-0.516
3.623,-0.532
3.624,-0.544
3.625,-0.561
3.626,-0.574
3.627,-0.583
3.628,-0.589
3.629,-0.593
3.630,-0.584
3.631,-0.568
3.632,-0.551
3.633,-0.535
3.634,-0.517
3.635,-0.504
3.636,-0.491
3.637,-0.485
3.638,-0.474
3.639,-0.472
3.640,-0.487
3.641,-0.494
3.642,-0.510
3.643,-0.522
3.644,-0.526
3.645,-0.530
3.646,-0.534
3.647,-0.532
3.648,-0.526
3.649,-0.511
3.650,-0.502
3.651,-0.486
3.652,-0.469
3.653,-0.451
3.654,-0.444
3.655,-0.434
3.656,-0.431
3.657,-0.434
3.658,-0.441
3.659,-0.449
3.660,-0.471
3.661,-0.509
3.662,-0.522
3.663,-0.530
3.664,-0.534
3.665,-0.534
3.666,-0.534
3.667,-0.526
3.668,-0.511
3.669,-0.495
3.670,-0.471
3.671,-0.456
3.672,-0.446
3.673,-0.430
3.674,-0.424
3.675,-0.414
3.676,-0.415
3.677,-0.421
3.678,-0.431
3.679,-0.448
3.680,-0.489
3.681,-0.506
3.682,-0.515
3.683,-0.515
3.684,-0.512
3.685,-0.456
3.686,-0.491
3.687,-0.466
3.688,-0.449
3.689,-0.429
3.690,-0.409
3.691,-0.386
3.692,-0.378
3.693,-0.374
3.694,-0.378
3.695,-0.386
3.696,-0.406
3.697,-0.431
3.698,-0.451
3.699,-0.481
3.700,-0.514
3.701,-0.526
3.702,-0.524
3.703,-0.505
3.704,-0.486
3.705,-0.458
3.706,-0.434
3.707,-0.409
3.708,-0.384
3.709,-0.366
3.710,-0.354
3.711,-0.354
3.712,-0.366
3.713,-0.386
3.714,-0.412
3.715,-0.431
3.716,-0.455
3.717,-0.481
3.718,-0.491
3.719,-0.504
3.720,-0.502
3.721,-0.494
3.722,-0.482
3.723,-0.463
3.724,-0.444
3.725,-0.426
3.726,-0.410
3.727,-0.386
3.728,-0.381
3.729,-0.371
3.730,-0.376
3.731,-0.386
3.732,-0.394
3.733,-0.406
3.734,-0.411
3.735,-0.414
3.736,-0.416
3.737,-0.422
3.738,-0.421
3.739,-0.422
3.740,-0.403
3.741,-0.389
3.742,-0.370
3.743,-0.354
3.744,-0.340
3.745,-0.325
3.746,-0.307
3.747,-0.299
3.748,-0.295
3.749,-0.291
3.750,-0.295
3.751,-0.305
3.752,-0.311
3.753,-0.333
3.754,-0.349
3.755,-0.364
3.756,-0.376
3.757,-0.388
3.758,-0.389
3.759,-0.388
3.760,-0.372
3.761,-0.357
3.762,-0.334
3.763,-0.321
3.764,-0.296
3.765,-0.282
3.766,-0.264
3.767,-0.251
3.768,-0.246
3.769,-0.244
3.770,-0.250
3.771,-0.261
3.772,-0.273
3.773,-0.290
3.774,-0.296
3.775,-0.309
3.776,-0.314
3.777,-0.325
3.778,-0.329
3.779,-0.325
3.780,-0.310
3.781,-0.299
3.782,-0.290
3.783,-0.271
3.784,-0.254
3.785,-0.231
3.786,-0.215
3.787,-0.204
3.788,-0.195
3.789,-0.196
3.790,-0.204
3.791,-0.216
3.792,-0.233
3.793,-0.251
3.794,-0.268
3.795,-0.274
3.796,-0.287
3.797,-0.285
3.798,-0.281
3.799,-0.271
3.800,-0.231
3.801,-0.210
3.802,-0.186
3.803,-0.168
3.804,-0.142
3.805,-0.129
3.806,-0.122
3.807,-0.125
3.808,-0.134
3.809,-0.141
3.810,-0.151
3.811,-0.174
3.812,-0.196
3.813,-0.215
3.814,-0.234
3.815,-0.249
3.816,-0.256
3.817,-0.253
3.818,-0.247
3.819,-0.229
3.820,-0.196
3.821,-0.186
3.822,-0.164
3.823,-0.151
3.824,-0.151
3.825,-0.164
3.826,-0.174
3.827,-0.195
3.828,-0.228
3.829,-0.261
3.830,-0.286
3.831,-0.311
3.832,-0.329
3.833,-0.329
3.834,-0.331
3.835,-0.324
3.836,-0.311
3.837,-0.296
3.838,-0.287
3.839,-0.264
3.840,-0.245
3.841,-0.241
3.842,-0.249
3.843,-0.266
3.844,-0.290
3.845,-0.311
3.846,-0.345
3.847,-0.364
3.848,-0.386
3.849,-0.410
3.850,-0.424
3.851,-0.429
3.852,-0.432
3.853,-0.431
3.854,-0.429
3.855,-0.421
3.856,-0.412
3.857,-0.407
3.858,-0.401
3.859,-0.394
3.860,-0.405
3.861,-0.394
3.862,-0.401
3.863,-0.401
3.864,-0.414
3.865,-0.424
3.866,-0.431
3.867,-0.450
3.868,-0.469
3.869,-0.484
3.870,-0.496
3.871,-0.504
3.872,-0.512
3.873,-0.501
3.874,-0.491
3.875,-0.481
3.876,-0.463
3.877,-0.444
3.878,-0.427
3.879,-0.411
3.880,-0.391
3.881,-0.404
3.882,-0.411
3.883,-0.426
3.884,-0.446
3.885,-0.469
3.886,-0.486
3.887,-0.502
3.888,-0.511
3.889,-0.521
3.890,-0.517
3.891,-0.510
3.892,-0.500
3.893,-0.486
3.894,-0.468
3.895,-0.451
3.896,-0.441
3.897,-0.431
3.898,-0.424
3.899,-0.416
3.900,-0.406
3.901,-0.407
3.902,-0.405
3.903,-0.411
3.904,-0.416
3.905,-0.424
3.906,-0.431
3.907,-0.444
3.908,-0.453
3.909,-0.453
3.910,-0.449
3.911,-0.443
3.912,-0.431
3.913,-0.421
3.914,-0.407
3.915,-0.389
3.916,-0.376
3.917,-0.369
3.918,-0.365
3.919,-0.364
3.920,-0.388
3.921,-0.406
3.922,-0.429
3.923,-0.449
3.924,-0.471
3.925,-0.494
3.926,-0.506
3.927,-0.514
3.928,-0.514
3.929,-0.511
3.930,-0.501
3.931,-0.489
3.932,-0.465
3.933,-0.449
3.934,-0.424
3.935,-0.393
3.936,-0.369
3.937,-0.355
3.938,-0.351
3.939,-0.351
3.940,-0.375
3.941,-0.404
3.942,-0.421
3.943,-0.446
3.944,-0.454
3.945,-0.455
3.946,-0.456
3.947,-0.455
3.948,-0.444
3.949,-0.431
3.950,-0.412
3.951,-0.391
3.952,-0.369
3.953,-0.350
3.954,-0.331
3.955,-0.326
3.956,-0.326
3.957,-0.331
3.958,-0.341
3.959,-0.351
3.960,-0.375
3.961,-0.386
3.962,-0.389
3.963,-0.384
3.964,-0.379
3.965,-0.372
3.966,-0.361
3.967,-0.351
3.968,-0.341
3.969,-0.334
3.970,-0.321
3.971,-0.314
3.972,-0.311
3.973,-0.329
3.974,-0.340
3.975,-0.351
3.976,-0.370
3.977,-0.386
3.978,-0.405
3.979,-0.414
3.980,-0.422
3.981,-0.414
3.982,-0.414
3.983,-0.409
3.984,-0.390
3.985,-0.376
3.986,-0.361
3.987,-0.341
3.988,-0.323
3.989,-0.304
3.990,-0.291
3.991,-0.289
3.992,-0.291
3.993,-0.296
3.994,-0.309
3.995,-0.328
3.996,-0.344
3.997,-0.361
3.998,-0.376
3.999,-0.389
4.000,-0.406
4.001,-0.411
4.002,-0.391
4.003,-0.388
4.004,-0.371
4.005,-0.356
4.006,-0.344
4.007,-0.326
4.008,-0.309
4.009,-0.295
4.010,-0.287
4.011,-0.284
4.012,-0.284
4.013,-0.287
4.014,-0.296
4.015,-0.314
4.016,-0.336
4.017,-0.354
4.018,-0.370
4.019,-0.385
4.020,-0.405
4.021,-0.401
4.022,-0.390
4.023,-0.383
4.024,-0.366
4.025,-0.409
4.026,-0.331
4.027,-0.321
4.028,-0.306
4.029,-0.296
4.030,-0.295
4.031,-0.302
4.032,-0.309
4.033,-0.326
4.034,-0.344
4.035,-0.361
4.036,-0.371
4.037,-0.388
4.038,-0.405
4.039,-0.411
4.040,-0.410
4.041,-0.403
4.042,-0.388
4.043,-0.371
4.044,-0.356
4.045,-0.346
4.046,-0.334
4.047,-0.326
4.048,-0.321
4.049,-0.321
4.050,-0.330
4.051,-0.336
4.052,-0.346
4.053,-0.364
4.054,-0.375
4.055,-0.394
4.056,-0.415
4.057,-0.424
4.058,-0.426
4.059,-0.412
4.060,-0.378
4.061,-0.364
4.062,-0.347
4.063,-0.326
4.064,-0.309
4.065,-0.297
4.066,-0.294
4.067,-0.291
4.068,-0.294
4.069,-0.306
4.070,-0.324
4.071,-0.341
4.072,-0.366
4.073,-0.386
4.074,-0.407
4.075,-0.424
4.076,-0.430
4.077,-0.429
4.078,-0.421
4.079,-0.400
4.080,-0.321
4.081,-0.289
4.082,-0.269
4.083,-0.254
4.084,-0.247
4.085,-0.246
4.086,-0.250
4.087,-0.264
4.088,-0.333
4.089,-0.296
4.090,-0.330
4.091,-0.356
4.092,-0.384
4.093,-0.416
4.094,-0.446
4.095,-0.464
4.096,-0.471
4.097,-0.466
4.098,-0.456
4.099,-0.436
4.100,-0.386
4.101,-0.362
4.102,-0.341
4.103,-0.321
4.104,-0.306
4.105,-0.295
4.106,-0.296
4.107,-0.301
4.108,-0.321
4.109,-0.334
4.110,-0.354
4.111,-0.370
4.112,-0.391
4.113,-0.414
4.114,-0.429
4.115,-0.435
4.116,-0.438
4.117,-0.434
4.118,-0.416
4.119,-0.404
4.120,-0.349
4.121,-0.335
4.122,-0.314
4.123,-0.306
4.124,-0.307
4.125,-0.307
4.126,-0.324
4.127,-0.334
4.128,-0.346
4.129,-0.356
4.130,-0.369
4.131,-0.381
4.132,-0.389
4.133,-0.406
4.134,-0.411
4.135,-0.414
4.136,-0.411
4.137,-0.410
4.138,-0.391
4.139,-0.376
4.140,-0.336
4.141,-0.306
4.142,-0.302
4.143,-0.304
4.144,-0.307
4.145,-0.321
4.146,-0.336
4.147,-0.350
4.148,-0.371
4.149,-0.388
4.150,-0.409
4.151,-0.375
4.152,-0.435
4.153,-0.444
4.154,-0.451
4.155,-0.444
4.156,-0.431
4.157,-0.412
4.158,-0.389
4.159,-0.369
4.160,-0.324
4.161,-0.290
4.162,-0.289
4.163,-0.290
4.164,-0.296
4.165,-0.311
4.166,-0.334
4.167,-0.349
4.168,-0.371
4.169,-0.376
4.170,-0.375
4.171,-0.371
4.172,-0.364
4.173,-0.351
4.174,-0.334
4.175,-0.311
4.176,-0.301
4.177,-0.287
4.178,-0.274
4.179,-0.264
4.180,-0.254
4.181,-0.264
4.182,-0.269
4.183,-0.289
4.184,-0.309
4.185,-0.330
4.186,-0.349
4.187,-0.364
4.188,-0.374
4.189,-0.376
4.190,-0.372
4.191,-0.359
4.192,-0.349
4.193,-0.328
4.194,-0.310
4.195,-0.289
4.196,-0.274
4.197,-0.266
4.198,-0.261
4.199,-0.261
4.200,-0.284
4.201,-0.295
4.202,-0.309
4.203,-0.329
4.204,-0.341
4.205,-0.350
4.206,-0.362
4.207,-0.361
4.208,-0.365
4.209,-0.362
4.210,-0.354
4.211,-0.334
4.212,-0.311
4.213,-0.291
4.214,-0.271
4.215,-0.256
4.216,-0.245
4.217,-0.230
4.218,-0.230
4.219,-0.231
4.220,-0.256
4.221,-0.268
4.222,-0.275
4.223,-0.286
4.224,-0.294
4.225,-0.301
4.226,-0.307
4.227,-0.302
4.228,-0.295
4.229,-0.281
4.230,-0.265
4.231,-0.246
4.232,-0.224
4.233,-0.206
4.234,-0.193
4.235,-0.185
4.236,-0.176
4.237,-0.174
4.238,-0.176
4.239,-0.193
4.240,-0.244
4.241,-0.266
4.242,-0.311
4.243,-0.311
4.244,-0.336
4.245,-0.346
4.246,-0.356
4.247,-0.356
4.248,-0.351
4.249,-0.336
4.250,-0.306
4.251,-0.271
4.252,-0.233
4.253,-0.194
4.254,-0.164
4.255,-0.135
4.256,-0.124
4.257,-0.114
4.258,-0.116
4.259,-0.129
4.260,-0.170
4.261,-0.188
4.262,-0.210
4.263,-0.228
4.264,-0.244
4.265,-0.251
4.266,-0.255
4.267,-0.251
4.268,-0.251
4.269,-0.244
4.270,-0.219
4.271,-0.211
4.272,-0.196
4.273,-0.189
4.274,-0.186
4.275,-0.215
4.276,-0.191
4.277,-0.203
4.278,-0.216
4.279,-0.230
4.280,-0.281
4.281,-0.314
4.282,-0.336
4.283,-0.346
4.284,-0.349
4.285,-0.344
4.286,-0.329
4.287,-0.309
4.288,-0.290
4.289,-0.270
4.290,-0.256
4.291,-0.249
4.292,-0.251
4.293,-0.253
4.294,-0.263
4.295,-0.286
4.296,-0.311
4.297,-0.338
4.298,-0.364
4.299,-0.384
4.300,-0.409
4.301,-0.410
4.302,-0.404
4.303,-0.385
4.304,-0.366
4.305,-0.350
4.306,-0.331
4.307,-0.312
4.308,-0.297
4.309,-0.291
4.310,-0.284
4.311,-0.281
4.312,-0.274
4.313,-0.274
4.314,-0.284
4.315,-0.301
4.316,-0.326
4.317,-0.349
4.318,-0.366
4.319,-0.379
4.320,-0.389
4.321,-0.385
4.322,-0.374
4.323,-0.352
4.324,-0.334
4.325,-0.321
4.326,-0.304
4.327,-0.295
4.328,-0.292
4.329,-0.289
4.330,-0.296
4.331,-0.309
4.332,-0.326
4.333,-0.344
4.334,-0.362
4.335,-0.371
4.336,-0.391
4.337,-0.409
4.338,-0.421
4.339,-0.421
4.340,-0.406
4.341,-0.391
4.342,-0.372
4.343,-0.351
4.344,-0.336
4.345,-0.314
4.346,-0.297
4.347,-0.287
4.348,-0.281
4.349,-0.281
4.350,-0.294
4.351,-0.309
4.352,-0.329
4.353,-0.341
4.354,-0.350
4.355,-0.356
4.356,-0.356
4.357,-0.366
4.358,-0.366
4.359,-0.367
4.360,-0.360
4.361,-0.351
4.362,-0.345
4.363,-0.334
4.364,-0.324
4.365,-0.314
4.366,-0.352
4.367,-0.292
4.368,-0.324
4.369,-0.328
4.370,-0.336
4.371,-0.351
4.372,-0.369
4.373,-0.390
4.374,-0.411
4.375,-0.431
4.376,-0.444
4.377,-0.446
4.378,-0.435
4.379,-0.414
4.380,-0.326
4.381,-0.274
4.382,-0.209
4.383,-0.133
4.384,-0.051
4.385,0.036
4.386,0.139
4.387,0.259
4.388,0.360
4.389,0.471
4.390,0.584
4.391,0.696
4.392,0.797
4.393,0.916
4.394,1.029
4.395,1.154
4.396,1.299
4.397,1.430
4.398,1.589
4.399,1.728
4.400,1.946
4.401,1.956
4.402,1.909
4.403,1.831
4.404,1.729
4.405,1.599
4.406,1.449
4.407,1.268
4.408,1.084
4.409,0.886
4.410,0.685
4.411,0.494
4.412,0.314
4.413,0.158
4.414,0.026
4.415,-0.091
4.416,-0.190
4.417,-0.268
4.418,-0.330
4.419,-0.366
4.420,-0.430
4.421,-0.454
4.422,-0.481
4.423,-0.507
4.424,-0.530
4.425,-0.551
4.426,-0.581
4.427,-0.604
4.428,-0.629
4.429,-0.645
4.430,-0.654
4.431,-0.655
4.432,-0.649
4.433,-0.644
4.434,-0.619
4.435,-0.604
4.436,-0.576
4.437,-0.547
4.438,-0.512
4.439,-0.486
4.440,-0.434
4.441,-0.424
4.442,-0.409
4.443,-0.404
4.444,-0.405
4.445,-0.410
4.446,-0.429
4.447,-0.445
4.448,-0.464
4.449,-0.486
4.450,-0.501
4.451,-0.509
4.452,-0.509
4.453,-0.500
4.454,-0.490
4.455,-0.474
4.456,-0.461
4.457,-0.446
4.458,-0.426
4.459,-0.411
4.460,-0.388
4.461,-0.384
4.462,-0.388
4.463,-0.394
4.464,-0.411
4.465,-0.426
4.466,-0.435
4.467,-0.446
4.468,-0.456
4.469,-0.466
4.470,-0.471
4.471,-0.474
4.472,-0.469
4.473,-0.455
4.474,-0.444
4.475,-0.425
4.476,-0.414
4.477,-0.391
4.478,-0.376
4.479,-0.369
4.480,-0.364
4.481,-0.361
4.482,-0.366
4.483,-0.371
4.484,-0.391
4.485,-0.416
4.486,-0.443
4.487,-0.469
4.488,-0.491
4.489,-0.504
4.490,-0.492
4.491,-0.474
4.492,-0.451
4.493,-0.425
4.494,-0.389
4.495,-0.349
4.496,-0.321
4.497,-0.295
4.498,-0.281
4.499,-0.269
4.500,-0.266
4.501,-0.273
4.502,-0.280
4.503,-0.294
4.504,-0.324
4.505,-0.341
4.506,-0.357
4.507,-0.381
4.508,-0.394
4.509,-0.404
4.510,-0.403
4.511,-0.389
4.512,-0.371
4.513,-0.351
4.514,-0.331
4.515,-0.304
4.516,-0.289
4.517,-0.275
4.518,-0.266
4.519,-0.256
4.520,-0.253
4.521,-0.256
4.522,-0.281
4.523,-0.291
4.524,-0.306
4.525,-0.326
4.526,-0.331
4.527,-0.334
4.528,-0.331
4.529,-0.329
4.530,-0.320
4.531,-0.297
4.532,-0.286
4.533,-0.268
4.534,-0.249
4.535,-0.226
4.536,-0.214
4.537,-0.206
4.538,-0.204
4.539,-0.210
4.540,-0.244
4.541,-0.264
4.542,-0.286
4.543,-0.306
4.544,-0.323
4.545,-0.329
4.546,-0.334
4.547,-0.334
4.548,-0.330
4.549,-0.309
4.550,-0.286
4.551,-0.264
4.552,-0.244
4.553,-0.219
4.554,-0.206
4.555,-0.191
4.556,-0.194
4.557,-0.191
4.558,-0.196
4.559,-0.209
4.560,-0.245
4.561,-0.261
4.562,-0.274
4.563,-0.292
4.564,-0.297
4.565,-0.309
4.566,-0.311
4.567,-0.304
4.568,-0.294
4.569,-0.276
4.570,-0.261
4.571,-0.245
4.572,-0.216
4.573,-0.194
4.574,-0.182
4.575,-0.176
4.576,-0.176
4.577,-0.181
4.578,-0.184
4.579,-0.195
4.580,-0.229
4.581,-0.249
4.582,-0.265
4.583,-0.281
4.584,-0.302
4.585,-0.301
4.586,-0.296
4.587,-0.286
4.588,-0.261
4.589,-0.241
4.590,-0.211
4.591,-0.189
4.592,-0.174
4.593,-0.166
4.594,-0.161
4.595,-0.161
4.596,-0.170
4.597,-0.181
4.598,-0.199
4.599,-0.224
4.600,-0.263
4.601,-0.266
4.602,-0.270
4.603,-0.269
4.604,-0.264
4.605,-0.249
4.606,-0.226
4.607,-0.195
4.608,-0.169
4.609,-0.133
4.610,-0.104
4.611,-0.074
4.612,-0.054
4.613,-0.046
4.614,-0.045
4.615,-0.049
4.616,-0.062
4.617,-0.081
4.618,-0.104
4.619,-0.128
4.620,-0.166
4.621,-0.176
4.622,-0.193
4.623,-0.196
4.624,-0.196
4.625,-0.194
4.626,-0.186
4.627,-0.171
4.628,-0.164
4.629,-0.138
4.630,-0.116
4.631,-0.106
4.632,-0.101
4.633,-0.106
4.634,-0.113
4.635,-0.131
4.636,-0.152
4.637,-0.181
4.638,-0.204
4.639,-0.219
4.640,-0.247
4.641,-0.246
4.642,-0.241
4.643,-0.223
4.644,-0.210
4.645,-0.195
4.646,-0.175
4.647,-0.193
4.648,-0.139
4.649,-0.126
4.650,-0.114
4.651,-0.111
4.652,-0.111
4.653,-0.109
4.654,-0.116
4.655,-0.126
4.656,-0.141
4.657,-0.161
4.658,-0.176
4.659,-0.195
4.660,-0.226
4.661,-0.244
4.662,-0.249
4.663,-0.247
4.664,-0.241
4.665,-0.229
4.666,-0.216
4.667,-0.206
4.668,-0.196
4.669,-0.195
4.670,-0.204
4.671,-0.210
4.672,-0.226
4.673,-0.241
4.674,-0.256
4.675,-0.275
4.676,-0.295
4.677,-0.328
4.678,-0.349
4.679,-0.362
4.680,-0.374
4.681,-0.381
4.682,-0.375
4.683,-0.370
4.684,-0.352
4.685,-0.311
4.686,-0.287
4.687,-0.275
4.688,-0.266
4.689,-0.264
4.690,-0.274
4.691,-0.289
4.692,-0.311
4.693,-0.341
4.694,-0.369
4.695,-0.389
4.696,-0.403
4.697,-0.409
4.698,-0.410
4.699,-0.412
4.700,-0.404
4.701,-0.404
4.702,-0.391
4.703,-0.381
4.704,-0.369
4.705,-0.351
4.706,-0.345
4.707,-0.341
4.708,-0.334
4.709,-0.341
4.710,-0.341
4.711,-0.344
4.712,-0.349
4.713,-0.361
4.714,-0.366
4.715,-0.371
4.716,-0.374
4.717,-0.372
4.718,-0.369
4.719,-0.356
4.720,-0.324
4.721,-0.301
4.722,-0.291
4.723,-0.276
4.724,-0.274
4.725,-0.271
4.726,-0.281
4.727,-0.287
4.728,-0.297
4.729,-0.321
4.730,-0.344
4.731,-0.362
4.732,-0.384
4.733,-0.404
4.734,-0.414
4.735,-0.422
4.736,-0.426
4.737,-0.416
4.738,-0.411
4.739,-0.386
4.740,-0.351
4.741,-0.329
4.742,-0.309
4.743,-0.289
4.744,-0.281
4.745,-0.276
4.746,-0.281
4.747,-0.291
4.748,-0.305
4.749,-0.330
4.750,-0.346
4.751,-0.367
4.752,-0.384
4.753,-0.401
4.754,-0.410
4.755,-0.410
4.756,-0.410
4.757,-0.401
4.758,-0.383
4.759,-0.366
4.760,-0.334
4.761,-0.321
4.762,-0.312
4.763,-0.305
4.764,-0.302
4.765,-0.296
4.766,-0.296
4.767,-0.307
4.768,-0.321
4.769,-0.326
4.770,-0.331
4.771,-0.340
4.772,-0.341
4.773,-0.343
4.774,-0.339
4.775,-0.330
4.776,-0.311
4.777,-0.304
4.778,-0.284
4.779,-0.264
4.780,-0.233
4.781,-0.235
4.782,-0.246
4.783,-0.261
4.784,-0.276
4.785,-0.291
4.786,-0.309
4.787,-0.323
4.788,-0.331
4.789,-0.334
4.790,-0.344
4.791,-0.336
4.792,-0.331
4.793,-0.328
4.794,-0.311
4.795,-0.306
4.796,-0.295
4.797,-0.295
4.798,-0.291
4.799,-0.291
4.800,-0.307
4.801,-0.321
4.802,-0.324
4.803,-0.331
4.804,-0.331
4.805,-0.334
4.806,-0.347
4.807,-0.351
4.808,-0.351
4.809,-0.350
4.810,-0.336
4.811,-0.334
4.812,-0.314
4.813,-0.301
4.814,-0.286
4.815,-0.271
4.816,-0.254
4.817,-0.234
4.818,-0.224
4.819,-0.216
4.820,-0.223
4.821,-0.231
4.822,-0.242
4.823,-0.251
4.824,-0.266
4.825,-0.274
4.826,-0.290
4.827,-0.301
4.828,-0.309
4.829,-0.324
4.830,-0.326
4.831,-0.321
4.832,-0.323
4.833,-0.311
4.834,-0.301
4.835,-0.292
4.836,-0.286
4.837,-0.271
4.838,-0.266
4.839,-0.264
4.840,-0.261
4.841,-0.261
4.842,-0.270
4.843,-0.281
4.844,-0.294
4.845,-0.304
4.846,-0.312
4.847,-0.324
4.848,-0.329
4.849,-0.325
4.850,-0.311
4.851,-0.296
4.852,-0.286
4.853,-0.269
4.854,-0.251
4.855,-0.241
4.856,-0.230
4.857,-0.229
4.858,-0.244
4.859,-0.254
4.860,-0.289
4.861,-0.302
4.862,-0.365
4.863,-0.335
4.864,-0.346
4.865,-0.351
4.866,-0.356
4.867,-0.351
4.868,-0.345
4.869,-0.333
4.870,-0.321
4.871,-0.304
4.872,-0.286
4.873,-0.269
4.874,-0.255
4.875,-0.249
4.876,-0.244
4.877,-0.234
4.878,-0.244
4.879,-0.249
4.880,-0.284
4.881,-0.304
4.882,-0.326
4.883,-0.338
4.884,-0.352
4.885,-0.361
4.886,-0.362
4.887,-0.357
4.888,-0.344
4.889,-0.329
4.890,-0.309
4.891,-0.286
4.892,-0.264
4.893,-0.241
4.894,-0.225
4.895,-0.211
4.896,-0.210
4.897,-0.214
4.898,-0.230
4.899,-0.249
4.900,-0.269
4.901,-0.281
4.902,-0.287
4.903,-0.295
4.904,-0.304
4.905,-0.304
4.906,-0.304
4.907,-0.296
4.908,-0.296
4.909,-0.286
4.910,-0.276
4.911,-0.268
4.912,-0.256
4.913,-0.255
4.914,-0.254
4.915,-0.254
4.916,-0.261
4.917,-0.269
4.918,-0.286
4.919,-0.305
4.920,-0.341
4.921,-0.356
4.922,-0.369
4.923,-0.375
4.924,-0.381
4.925,-0.384
4.926,-0.371
4.927,-0.360
4.928,-0.343
4.929,-0.311
4.930,-0.289
4.931,-0.261
4.932,-0.229
4.933,-0.212
4.934,-0.196
4.935,-0.194
4.936,-0.203
4.937,-0.216
4.938,-0.233
4.939,-0.251
4.940,-0.281
4.941,-0.286
4.942,-0.285
4.943,-0.286
4.944,-0.284
4.945,-0.274
4.946,-0.269
4.947,-0.261
4.948,-0.249
4.949,-0.231
4.950,-0.223
4.951,-0.212
4.952,-0.206
4.953,-0.204
4.954,-0.209
4.955,-0.215
4.956,-0.230
4.957,-0.251
4.958,-0.266
4.959,-0.284
4.960,-0.296
4.961,-0.304
4.962,-0.304
4.963,-0.301
4.964,-0.294
4.965,-0.285
4.966,-0.271
4.967,-0.251
4.968,-0.241
4.969,-0.225
4.970,-0.216
4.971,-0.216
4.972,-0.216
4.973,-0.224
4.974,-0.235
4.975,-0.264
4.976,-0.284
4.977,-0.304
4.978,-0.326
4.979,-0.336
4.980,-0.344
4.981,-0.330
4.982,-0.314
4.983,-0.304
4.984,-0.289
4.985,-0.274
4.986,-0.266
4.987,-0.249
4.988,-0.231
4.989,-0.221
4.990,-0.223
4.991,-0.228
4.992,-0.244
4.993,-0.266
4.994,-0.286
4.995,-0.321
4.996,-0.346
4.997,-0.369
4.998,-0.383
4.999,-0.385
5.000,-0.366
5.001,-0.331
5.002,-0.301
5.003,-0.274
5.004,-0.249
5.005,-0.226
5.006,-0.211
5.007,-0.196
5.008,-0.195
5.009,-0.196
5.010,-0.211
5.011,-0.229
5.012,-0.251
5.013,-0.273
5.014,-0.294
5.015,-0.310
5.016,-0.330
5.017,-0.341
5.018,-0.344
5.019,-0.344
5.020,-0.326
5.021,-0.311
5.022,-0.301
5.023,-0.286
5.024,-0.274
5.025,-0.268
5.026,-0.263
5.027,-0.255
5.028,-0.261
5.029,-0.268
5.030,-0.269
5.031,-0.281
5.032,-0.291
5.033,-0.306
5.034,-0.326
5.035,-0.341
5.036,-0.349
5.037,-0.361
5.038,-0.367
5.039,-0.359
5.040,-0.326
5.041,-0.305
5.042,-0.285
5.043,-0.264
5.044,-0.244
5.045,-0.226
5.046,-0.224
5.047,-0.225
5.048,-0.234
5.049,-0.256
5.050,-0.273
5.051,-0.291
5.052,-0.309
5.053,-0.331
5.054,-0.334
5.055,-0.344
5.056,-0.336
5.057,-0.334
5.058,-0.321
5.059,-0.307
5.060,-0.270
5.061,-0.256
5.062,-0.245
5.063,-0.225
5.064,-0.219
5.065,-0.224
5.066,-0.231
5.067,-0.254
5.068,-0.276
5.069,-0.301
5.070,-0.325
5.071,-0.344
5.072,-0.351
5.073,-0.351
5.074,-0.354
5.075,-0.349
5.076,-0.341
5.077,-0.324
5.078,-0.301
5.079,-0.280
5.080,-0.231
5.081,-0.223
5.082,-0.211
5.083,-0.206
5.084,-0.206
5.085,-0.209
5.086,-0.220
5.087,-0.242
5.088,-0.261
5.089,-0.281
5.090,-0.301
5.091,-0.310
5.092,-0.320
5.093,-0.312
5.094,-0.307
5.095,-0.296
5.096,-0.284
5.097,-0.266
5.098,-0.246
5.099,-0.229
5.100,-0.209
5.101,-0.209
5.102,-0.209
5.103,-0.211
5.104,-0.216
5.105,-0.225
5.106,-0.230
5.107,-0.249
5.108,-0.256
5.109,-0.264
5.110,-0.269
5.111,-0.269
5.112,-0.261
5.113,-0.251
5.114,-0.233
5.115,-0.216
5.116,-0.196
5.117,-0.176
5.118,-0.149
5.119,-0.136
5.120,-0.116
5.121,-0.111
5.122,-0.121
5.123,-0.130
5.124,-0.144
5.125,-0.171
5.126,-0.194
5.127,-0.216
5.128,-0.231
5.129,-0.251
5.130,-0.264
5.131,-0.271
5.132,-0.273
5.133,-0.271
5.134,-0.270
5.135,-0.264
5.136,-0.256
5.137,-0.249
5.138,-0.233
5.139,-0.226
5.140,-0.216
5.141,-0.226
5.142,-0.229
5.143,-0.231
5.144,-0.207
5.145,-0.203
5.146,-0.195
5.147,-0.193
5.148,-0.189
5.149,-0.189
5.150,-0.188
5.151,-0.181
5.152,-0.171
5.153,-0.164
5.154,-0.145
5.155,-0.129
5.156,-0.121
5.157,-0.106
5.158,-0.092
5.159,-0.091
5.160,-0.109
5.161,-0.164
5.162,-0.191
5.163,-0.214
5.164,-0.244
5.165,-0.264
5.166,-0.282
5.167,-0.291
5.168,-0.289
5.169,-0.284
5.170,-0.271
5.171,-0.256
5.172,-0.245
5.173,-0.221
5.174,-0.207
5.175,-0.191
5.176,-0.184
5.177,-0.181
5.178,-0.182
5.179,-0.190
5.180,-0.221
5.181,-0.241
5.182,-0.256
5.183,-0.275
5.184,-0.291
5.185,-0.306
5.186,-0.311
5.187,-0.324
5.188,-0.329
5.189,-0.326
5.190,-0.314
5.191,-0.305
5.192,-0.291
5.193,-0.276
5.194,-0.266
5.195,-0.263
5.196,-0.255
5.197,-0.263
5.198,-0.264
5.199,-0.266
5.200,-0.282
5.201,-0.292
5.202,-0.301
5.203,-0.310
5.204,-0.334
5.205,-0.334
5.206,-0.344
5.207,-0.344
5.208,-0.330
5.209,-0.309
5.210,-0.287
5.211,-0.266
5.212,-0.251
5.213,-0.233
5.214,-0.223
5.215,-0.212
5.216,-0.212
5.217,-0.216
5.218,-0.231
5.219,-0.250
5.220,-0.290
5.221,-0.306
5.222,-0.326
5.223,-0.335
5.224,-0.336
5.225,-0.335
5.226,-0.328
5.227,-0.306
5.228,-0.289
5.229,-0.268
5.230,-0.246
5.231,-0.221
5.232,-0.206
5.233,-0.198
5.234,-0.195
5.235,-0.206
5.236,-0.211
5.237,-0.228
5.238,-0.250
5.239,-0.269
5.240,-0.305
5.241,-0.321
5.242,-0.333
5.243,-0.341
5.244,-0.349
5.245,-0.349
5.246,-0.340
5.247,-0.321
5.248,-0.289
5.249,-0.254
5.250,-0.216
5.251,-0.195
5.252,-0.174
5.253,-0.166
5.254,-0.163
5.255,-0.169
5.256,-0.176
5.257,-0.191
5.258,-0.214
5.259,-0.247
5.260,-0.301
5.261,-0.324
5.262,-0.343
5.263,-0.354
5.264,-0.354
5.265,-0.340
5.266,-0.301
5.267,-0.274
5.268,-0.246
5.269,-0.206
5.270,-0.168
5.271,-0.121
5.272,-0.072
5.273,-0.026
5.274,0.034
5.275,0.094
5.276,0.169
5.277,0.249
5.278,0.336
5.279,0.435
5.280,0.674
5.281,0.904
5.282,1.046
5.283,1.194
5.284,1.369
5.285,1.544
5.286,1.726
5.287,1.899
5.288,2.050
5.289,2.159
5.290,2.206
5.291,2.204
5.292,2.131
5.293,2.033
5.294,1.894
5.295,1.735
5.296,1.561
5.297,1.389
5.298,1.206
5.299,1.029
5.300,0.671
5.301,0.539
5.302,0.394
5.303,0.264
5.304,0.134
5.305,0.033
5.306,-0.066
5.307,-0.149
5.308,-0.228
5.309,-0.306
5.310,-0.371
5.311,-0.436
5.312,-0.495
5.313,-0.541
5.314,-0.576
5.315,-0.603
5.316,-0.616
5.317,-0.626
5.318,-0.621
5.319,-0.616
5.320,-0.576
5.321,-0.554
5.322,-0.529
5.323,-0.491
5.324,-0.456
5.325,-0.430
5.326,-0.406
5.327,-0.390
5.328,-0.376
5.329,-0.374
5.330,-0.376
5.331,-0.383
5.332,-0.390
5.333,-0.401
5.334,-0.410
5.335,-0.416
5.336,-0.416
5.337,-0.416
5.338,-0.412
5.339,-0.407
5.340,-0.369
5.341,-0.362
5.342,-0.346
5.343,-0.333
5.344,-0.326
5.345,-0.321
5.346,-0.321
5.347,-0.326
5.348,-0.334
5.349,-0.352
5.350,-0.374
5.351,-0.403
5.352,-0.416
5.353,-0.430
5.354,-0.441
5.355,-0.446
5.356,-0.449
5.357,-0.449
5.358,-0.449
5.359,-0.454
5.360,-0.386
5.361,-0.370
5.362,-0.351
5.363,-0.344
5.364,-0.326
5.365,-0.325
5.366,-0.324
5.367,-0.328
5.368,-0.336
5.369,-0.349
5.370,-0.366
5.371,-0.381
5.372,-0.403
5.373,-0.407
5.374,-0.422
5.375,-0.425
5.376,-0.430
5.377,-0.425
5.378,-0.411
5.379,-0.393
5.380,-0.349
5.381,-0.334
5.382,-0.328
5.383,-0.310
5.384,-0.311
5.385,-0.334
5.386,-0.349
5.387,-0.366
5.388,-0.385
5.389,-0.429
5.390,-0.424
5.391,-0.441
5.392,-0.446
5.393,-0.449
5.394,-0.444
5.395,-0.416
5.396,-0.386
5.397,-0.351
5.398,-0.324
5.399,-0.296
5.400,-0.273
5.401,-0.268
5.402,-0.269
5.403,-0.271
5.404,-0.281
5.405,-0.289
5.406,-0.306
5.407,-0.324
5.408,-0.334
5.409,-0.341
5.410,-0.346
5.411,-0.347
5.412,-0.349
5.413,-0.344
5.414,-0.333
5.415,-0.324
5.416,-0.305
5.417,-0.289
5.418,-0.275
5.419,-0.269
5.420,-0.264
5.421,-0.260
5.422,-0.261
5.423,-0.264
5.424,-0.281
5.425,-0.289
5.426,-0.304
5.427,-0.321
5.428,-0.329
5.429,-0.334
5.430,-0.333
5.431,-0.326
5.432,-0.306
5.433,-0.289
5.434,-0.273
5.435,-0.265
5.436,-0.251
5.437,-0.241
5.438,-0.231
5.439,-0.229
5.440,-0.246
5.441,-0.275
5.442,-0.291
5.443,-0.304
5.444,-0.329
5.445,-0.341
5.446,-0.354
5.447,-0.351
5.448,-0.349
5.449,-0.341
5.450,-0.335
5.451,-0.311
5.452,-0.294
5.453,-0.274
5.454,-0.255
5.455,-0.234
5.456,-0.219
5.457,-0.203
5.458,-0.196
5.459,-0.196
5.460,-0.216
5.461,-0.229
5.462,-0.251
5.463,-0.270
5.464,-0.290
5.465,-0.306
5.466,-0.321
5.467,-0.325
5.468,-0.321
5.469,-0.306
5.470,-0.289
5.471,-0.269
5.472,-0.249
5.473,-0.216
5.474,-0.188
5.475,-0.164
5.476,-0.138
5.477,-0.129
5.478,-0.122
5.479,-0.129
5.480,-0.146
5.481,-0.181
5.482,-0.196
5.483,-0.206
5.484,-0.221
5.485,-0.229
5.486,-0.229
5.487,-0.230
5.488,-0.216
5.489,-0.204
5.490,-0.184
5.491,-0.166
5.492,-0.149
5.493,-0.136
5.494,-0.134
5.495,-0.136
5.496,-0.138
5.497,-0.151
5.498,-0.166
5.499,-0.181
5.500,-0.205
5.501,-0.210
5.502,-0.214
5.503,-0.212
5.504,-0.211
5.505,-0.204
5.506,-0.194
5.507,-0.181
5.508,-0.168
5.509,-0.149
5.510,-0.131
5.511,-0.116
5.512,-0.105
5.513,-0.091
5.514,-0.085
5.515,-0.084
5.516,-0.087
5.517,-0.095
5.518,-0.109
5.519,-0.126
5.520,-0.176
5.521,-0.201
5.522,-0.212
5.523,-0.224
5.524,-0.215
5.525,-0.207
5.526,-0.191
5.527,-0.171
5.528,-0.150
5.529,-0.129
5.530,-0.114
5.531,-0.106
5.532,-0.094
5.533,-0.094
5.534,-0.091
5.535,-0.104
5.536,-0.120
5.537,-0.134
5.538,-0.164
5.539,-0.190
5.540,-0.221
5.541,-0.230
5.542,-0.226
5.543,-0.214
5.544,-0.216
5.545,-0.207
5.546,-0.194
5.547,-0.181
5.548,-0.171
5.549,-0.169
5.550,-0.171
5.551,-0.176
5.552,-0.184
5.553,-0.191
5.554,-0.210
5.555,-0.226
5.556,-0.234
5.557,-0.250
5.558,-0.263
5.559,-0.266
5.560,-0.289
5.561,-0.294
5.562,-0.294
5.563,-0.290
5.564,-0.284
5.565,-0.280
5.566,-0.268
5.567,-0.261
5.568,-0.254
5.569,-0.250
5.570,-0.249
5.571,-0.254
5.572,-0.264
5.573,-0.286
5.574,-0.310
5.575,-0.370
5.576,-0.361
5.577,-0.386
5.578,-0.409
5.579,-0.424
5.580,-0.444
5.581,-0.444
5.582,-0.444
5.583,-0.441
5.584,-0.429
5.585,-0.411
5.586,-0.391
5.587,-0.371
5.588,-0.354
5.589,-0.336
5.590,-0.329
5.591,-0.325
5.592,-0.331
5.593,-0.350
5.594,-0.365
5.595,-0.379
5.596,-0.394
5.597,-0.414
5.598,-0.424
5.599,-0.429
5.600,-0.429
5.601,-0.416
5.602,-0.404
5.603,-0.386
5.604,-0.371
5.605,-0.356
5.606,-0.347
5.607,-0.346
5.608,-0.344
5.609,-0.345
5.610,-0.355
5.611,-0.372
5.612,-0.393
5.613,-0.420
5.614,-0.440
5.615,-0.453
5.616,-0.466
5.617,-0.471
5.618,-0.471
5.619,-0.465
5.620,-0.416
5.621,-0.366
5.622,-0.350
5.623,-0.331
5.624,-0.321
5.625,-0.305
5.626,-0.294
5.627,-0.294
5.628,-0.291
5.629,-0.304
5.630,-0.321
5.631,-0.341
5.632,-0.369
5.633,-0.401
5.634,-0.421
5.635,-0.427
5.636,-0.427
5.637,-0.421
5.638,-0.407
5.639,-0.391
5.640,-0.354
5.641,-0.344
5.642,-0.329
5.643,-0.311
5.644,-0.304
5.645,-0.294
5.646,-0.294
5.647,-0.292
5.648,-0.302
5.649,-0.321
5.650,-0.334
5.651,-0.351
5.652,-0.366
5.653,-0.384
5.654,-0.386
5.655,-0.391
5.656,-0.390
5.657,-0.386
5.658,-0.376
5.659,-0.365
5.660,-0.330
5.661,-0.323
5.662,-0.305
5.663,-0.299
5.664,-0.297
5.665,-0.309
5.666,-0.334
5.667,-0.354
5.668,-0.376
5.669,-0.401
5.670,-0.409
5.671,-0.421
5.672,-0.434
5.673,-0.434
5.674,-0.434
5.675,-0.425
5.676,-0.412
5.677,-0.394
5.678,-0.375
5.679,-0.355
5.680,-0.321
5.681,-0.306
5.682,-0.301
5.683,-0.301
5.684,-0.305
5.685,-0.323
5.686,-0.344
5.687,-0.366
5.688,-0.394
5.689,-0.424
5.690,-0.449
5.691,-0.466
5.692,-0.484
5.693,-0.486
5.694,-0.481
5.695,-0.461
5.696,-0.441
5.697,-0.414
5.698,-0.388
5.699,-0.370
5.700,-0.334
5.701,-0.329
5.702,-0.324
5.703,-0.323
5.704,-0.329
5.705,-0.341
5.706,-0.357
5.707,-0.376
5.708,-0.401
5.709,-0.421
5.710,-0.435
5.711,-0.449
5.712,-0.455
5.713,-0.461
5.714,-0.455
5.715,-0.446
5.716,-0.427
5.717,-0.409
5.718,-0.390
5.719,-0.370
5.720,-0.344
5.721,-0.336
5.722,-0.344
5.723,-0.349
5.724,-0.356
5.725,-0.371
5.726,-0.386
5.727,-0.401
5.728,-0.416
5.729,-0.426
5.730,-0.431
5.731,-0.434
5.732,-0.425
5.733,-0.416
5.734,-0.405
5.735,-0.384
5.736,-0.366
5.737,-0.344
5.738,-0.329
5.739,-0.314
5.740,-0.304
5.741,-0.309
5.742,-0.312
5.743,-0.323
5.744,-0.345
5.745,-0.357
5.746,-0.372
5.747,-0.386
5.748,-0.406
5.749,-0.409
5.750,-0.410
5.751,-0.404
5.752,-0.390
5.753,-0.376
5.754,-0.366
5.755,-0.347
5.756,-0.331
5.757,-0.321
5.758,-0.310
5.759,-0.309
5.760,-0.285
5.761,-0.374
5.762,-0.409
5.763,-0.431
5.764,-0.450
5.765,-0.455
5.766,-0.464
5.767,-0.461
5.768,-0.449
5.769,-0.431
5.770,-0.416
5.771,-0.401
5.772,-0.379
5.773,-0.364
5.774,-0.347
5.775,-0.331
5.776,-0.312
5.777,-0.306
5.778,-0.296
5.779,-0.296
5.780,-0.329
5.781,-0.344
5.782,-0.364
5.783,-0.376
5.784,-0.386
5.785,-0.391
5.786,-0.404
5.787,-0.404
5.788,-0.404
5.789,-0.405
5.790,-0.404
5.791,-0.390
5.792,-0.389
5.793,-0.390
5.794,-0.391
5.795,-0.401
5.796,-0.401
5.797,-0.391
5.798,-0.381
5.799,-0.374
5.800,-0.355
5.801,-0.350
5.802,-0.349
5.803,-0.355
5.804,-0.356
5.805,-0.357
5.806,-0.361
5.807,-0.356
5.808,-0.350
5.809,-0.347
5.810,-0.336
5.811,-0.330
5.812,-0.314
5.813,-0.311
5.814,-0.310
5.815,-0.321
5.816,-0.326
5.817,-0.329
5.818,-0.343
5.819,-0.355
5.820,-0.401
5.821,-0.416
5.822,-0.431
5.823,-0.445
5.824,-0.450
5.825,-0.449
5.826,-0.448
5.827,-0.444
5.828,-0.431
5.829,-0.414
5.830,-0.401
5.831,-0.375
5.832,-0.357
5.833,-0.345
5.834,-0.338
5.835,-0.333
5.836,-0.341
5.837,-0.349
5.838,-0.364
5.839,-0.383
5.840,-0.424
5.841,-0.429
5.842,-0.446
5.843,-0.461
5.844,-0.464
5.845,-0.449
5.846,-0.429
5.847,-0.406
5.848,-0.384
5.849,-0.366
5.850,-0.355
5.851,-0.349
5.852,-0.336
5.853,-0.330
5.854,-0.323
5.855,-0.329
5.856,-0.334
5.857,-0.344
5.858,-0.354
5.859,-0.369
5.860,-0.405
5.861,-0.412
5.862,-0.421
5.863,-0.421
5.864,-0.411
5.865,-0.388
5.866,-0.369
5.867,-0.335
5.868,-0.306
5.869,-0.286
5.870,-0.270
5.871,-0.261
5.872,-0.256
5.873,-0.264
5.874,-0.284
5.875,-0.306
5.876,-0.340
5.877,-0.364
5.878,-0.386
5.879,-0.409
5.880,-0.410
5.881,-0.401
5.882,-0.376
5.883,-0.361
5.884,-0.336
5.885,-0.311
5.886,-0.289
5.887,-0.264
5.888,-0.249
5.889,-0.234
5.890,-0.228
5.891,-0.226
5.892,-0.229
5.893,-0.234
5.894,-0.254
5.895,-0.274
5.896,-0.296
5.897,-0.326
5.898,-0.350
5.899,-0.366
5.900,-0.385
5.901,-0.386
5.902,-0.370
5.903,-0.355
5.904,-0.331
5.905,-0.309
5.906,-0.289
5.907,-0.266
5.908,-0.249
5.909,-0.234
5.910,-0.228
5.911,-0.226
5.912,-0.234
5.913,-0.249
5.914,-0.271
5.915,-0.292
5.916,-0.311
5.917,-0.341
5.918,-0.361
5.919,-0.384
5.920,-0.389
5.921,-0.385
5.922,-0.366
5.923,-0.341
5.924,-0.314
5.925,-0.289
5.926,-0.271
5.927,-0.251
5.928,-0.231
5.929,-0.229
5.930,-0.231
5.931,-0.241
5.932,-0.249
5.933,-0.266
5.934,-0.274
5.935,-0.294
5.936,-0.302
5.937,-0.312
5.938,-0.328
5.939,-0.329
5.940,-0.311
5.941,-0.305
5.942,-0.289
5.943,-0.271
5.944,-0.256
5.945,-0.242
5.946,-0.226
5.947,-0.209
5.948,-0.201
5.949,-0.195
5.950,-0.198
5.951,-0.210
5.952,-0.229
5.953,-0.256
5.954,-0.282
5.955,-0.310
5.956,-0.341
5.957,-0.370
5.958,-0.390
5.959,-0.401
5.960,-0.374
5.961,-0.321
5.962,-0.286
5.963,-0.256
5.964,-0.233
5.965,-0.215
5.966,-0.211
5.967,-0.209
5.968,-0.211
5.969,-0.221
5.970,-0.230
5.971,-0.246
5.972,-0.265
5.973,-0.284
5.974,-0.297
5.975,-0.324
5.976,-0.329
5.977,-0.331
5.978,-0.331
5.979,-0.328
5.980,-0.296
5.981,-0.284
5.982,-0.269
5.983,-0.255
5.984,-0.249
5.985,-0.245
5.986,-0.244
5.987,-0.249
5.988,-0.254
5.989,-0.266
5.990,-0.274
5.991,-0.286
5.992,-0.295
5.993,-0.305
5.994,-0.309
5.995,-0.311
5.996,-0.309
5.997,-0.306
5.998,-0.291
5.999,-0.276
6.000,-0.226
6.001,-0.209
6.002,-0.190
6.003,-0.171
6.004,-0.164
6.005,-0.154
6.006,-0.161
6.007,-0.170
6.008,-0.184
6.009,-0.201
6.010,-0.211
6.011,-0.229
6.012,-0.241
6.013,-0.245
6.014,-0.249
6.015,-0.246
6.016,-0.247
6.017,-0.246
6.018,-0.244
6.019,-0.230
6.020,-0.211
6.021,-0.209
6.022,-0.205
6.023,-0.206
6.024,-0.204
6.025,-0.206
6.026,-0.209
6.027,-0.210
6.028,-0.211
6.029,-0.209
6.030,-0.209
6.031,-0.204
6.032,-0.194
6.033,-0.186
6.034,-0.174
6.035,-0.161
6.036,-0.146
6.037,-0.131
6.038,-0.126
6.039,-0.116
6.040,-0.107
6.041,-0.114
6.042,-0.121
6.043,-0.133
6.044,-0.150
6.045,-0.181
6.046,-0.203
6.047,-0.246
6.048,-0.264
6.049,-0.281
6.050,-0.294
6.051,-0.299
6.052,-0.294
6.053,-0.284
6.054,-0.273
6.055,-0.263
6.056,-0.249
6.057,-0.244
6.058,-0.234
6.059,-0.229
6.060,-0.234
6.061,-0.244
6.062,-0.254
6.063,-0.268
6.064,-0.281
6.065,-0.296
6.066,-0.314
6.067,-0.341
6.068,-0.356
6.069,-0.366
6.070,-0.367
6.071,-0.354
6.072,-0.340
6.073,-0.314
6.074,-0.291
6.075,-0.273
6.076,-0.256
6.077,-0.242
6.078,-0.229
6.079,-0.224
6.080,-0.226
6.081,-0.231
6.082,-0.251
6.083,-0.264
6.084,-0.281
6.085,-0.295
6.086,-0.314
6.087,-0.331
6.088,-0.344
6.089,-0.346
6.090,-0.346
6.091,-0.344
6.092,-0.336
6.093,-0.325
6.094,-0.304
6.095,-0.289
6.096,-0.276
6.097,-0.266
6.098,-0.265
6.099,-0.269
6.100,-0.289
6.101,-0.323
6.102,-0.326
6.103,-0.336
6.104,-0.344
6.105,-0.351
6.106,-0.356
6.107,-0.352
6.108,-0.347
6.109,-0.343
6.110,-0.335
6.111,-0.321
6.112,-0.307
6.113,-0.291
6.114,-0.284
6.115,-0.273
6.116,-0.270
6.117,-0.271
6.118,-0.275
6.119,-0.289
6.120,-0.325
6.121,-0.366
6.122,-0.378
6.123,-0.401
6.124,-0.406
6.125,-0.405
6.126,-0.383
6.127,-0.356
6.128,-0.330
6.129,-0.295
6.130,-0.271
6.131,-0.255
6.132,-0.241
6.133,-0.207
6.134,-0.234
6.135,-0.241
6.136,-0.244
6.137,-0.249
6.138,-0.261
6.139,-0.276
6.140,-0.331
6.141,-0.349
6.142,-0.371
6.143,-0.391
6.144,-0.406
6.145,-0.414
6.146,-0.411
6.147,-0.406
6.148,-0.403
6.149,-0.389
6.150,-0.374
6.151,-0.362
6.152,-0.349
6.153,-0.325
6.154,-0.291
6.155,-0.261
6.156,-0.212
6.157,-0.164
6.158,-0.101
6.159,-0.034
6.160,0.136
6.161,0.219
6.162,0.306
6.163,0.414
6.164,0.526
6.165,0.650
6.166,0.771
6.167,0.911
6.168,1.066
6.169,1.229
6.170,1.415
6.171,1.609
6.172,1.794
6.173,1.960
6.174,2.086
6.175,2.154
6.176,2.176
6.177,2.130
6.178,2.044
6.179,1.913
6.180,1.606
6.181,1.470
6.182,1.314
6.183,1.156
6.184,1.004
6.185,0.849
6.186,0.695
6.187,0.546
6.188,0.399
6.189,0.264
6.190,0.125
6.191,-0.006
6.192,-0.122
6.193,-0.224
6.194,-0.331
6.195,-0.426
6.196,-0.516
6.197,-0.589
6.198,-0.652
6.199,-0.694
6.200,-0.744
6.201,-0.749
6.202,-0.745
6.203,-0.731
6.204,-0.709
6.205,-0.684
6.206,-0.647
6.207,-0.606
6.208,-0.564
6.209,-0.524
6.210,-0.489
6.211,-0.456
6.212,-0.431
6.213,-0.416
6.214,-0.416
6.215,-0.424
6.216,-0.432
6.217,-0.449
6.218,-0.464
6.219,-0.472
6.220,-0.494
6.221,-0.481
6.222,-0.456
6.223,-0.445
6.224,-0.404
6.225,-0.386
6.226,-0.372
6.227,-0.361
6.228,-0.356
6.229,-0.356
6.230,-0.366
6.231,-0.374
6.232,-0.393
6.233,-0.416
6.234,-0.431
6.235,-0.449
6.236,-0.464
6.237,-0.472
6.238,-0.481
6.239,-0.472
6.240,-0.434
6.241,-0.416
6.242,-0.386
6.243,-0.362
6.244,-0.340
6.245,-0.324
6.246,-0.309
6.247,-0.306
6.248,-0.307
6.249,-0.321
6.250,-0.329
6.251,-0.333
6.252,-0.345
6.253,-0.351
6.254,-0.356
6.255,-0.366
6.256,-0.371
6.257,-0.376
6.258,-0.345
6.259,-0.369
6.260,-0.343
6.261,-0.311
6.262,-0.304
6.263,-0.290
6.264,-0.284
6.265,-0.281
6.266,-0.281
6.267,-0.285
6.268,-0.287
6.269,-0.301
6.270,-0.324
6.271,-0.336
6.272,-0.354
6.273,-0.366
6.274,-0.374
6.275,-0.385
6.276,-0.386
6.277,-0.384
6.278,-0.372
6.279,-0.366
6.280,-0.334
6.281,-0.314
6.282,-0.295
6.283,-0.281
6.284,-0.266
6.285,-0.261
6.286,-0.260
6.287,-0.306
6.288,-0.269
6.289,-0.281
6.290,-0.294
6.291,-0.314
6.292,-0.334
6.293,-0.356
6.294,-0.369
6.295,-0.376
6.296,-0.381
6.297,-0.371
6.298,-0.349
6.299,-0.324
6.300,-0.260
6.301,-0.242
6.302,-0.226
6.303,-0.209
6.304,-0.209
6.305,-0.206
6.306,-0.210
6.307,-0.223
6.308,-0.234
6.309,-0.249
6.310,-0.264
6.311,-0.274
6.312,-0.286
6.313,-0.296
6.314,-0.297
6.315,-0.296
6.316,-0.292
6.317,-0.289
6.318,-0.285
6.319,-0.271
6.320,-0.247
6.321,-0.241
6.322,-0.221
6.323,-0.209
6.324,-0.203
6.325,-0.195
6.326,-0.194
6.327,-0.201
6.328,-0.211
6.329,-0.223
6.330,-0.241
6.331,-0.251
6.332,-0.266
6.333,-0.269
6.334,-0.269
6.335,-0.253
6.336,-0.229
6.337,-0.204
6.338,-0.176
6.339,-0.152
6.340,-0.135
6.341,-0.139
6.342,-0.145
6.343,-0.151
6.344,-0.172
6.345,-0.194
6.346,-0.249
6.347,-0.270
6.348,-0.284
6.349,-0.289
6.350,-0.286
6.351,-0.281
6.352,-0.266
6.353,-0.249
6.354,-0.226
6.355,-0.212
6.356,-0.204
6.357,-0.188
6.358,-0.176
6.359,-0.169
6.360,-0.154
6.361,-0.150
6.362,-0.150
6.363,-0.161
6.364,-0.166
6.365,-0.174
6.366,-0.182
6.367,-0.191
6.368,-0.203
6.369,-0.194
6.370,-0.198
6.371,-0.196
6.372,-0.188
6.373,-0.170
6.374,-0.146
6.375,-0.126
6.376,-0.104
6.377,-0.084
6.378,-0.069
6.379,-0.052
6.380,-0.061
6.381,-0.052
6.382,-0.071
6.383,-0.089
6.384,-0.111
6.385,-0.129
6.386,-0.145
6.387,-0.150
6.388,-0.161
6.389,-0.160
6.390,-0.146
6.391,-0.131
6.392,-0.115
6.393,-0.091
6.394,-0.064
6.395,-0.035
6.396,-0.016
6.397,-0.004
6.398,0.011
6.399,0.011
6.400,-0.016
6.401,-0.045
6.402,-0.064
6.403,-0.090
6.404,-0.106
6.405,-0.116
6.406,-0.131
6.407,-0.138
6.408,-0.136
6.409,-0.134
6.410,-0.126
6.411,-0.110
6.412,-0.094
6.413,-0.056
6.414,-0.051
6.415,-0.051
6.416,-0.051
6.417,-0.056
6.418,-0.058
6.419,-0.064
6.420,-0.084
6.421,-0.090
6.422,-0.091
6.423,-0.096
6.424,-0.101
6.425,-0.101
6.426,-0.096
6.427,-0.089
6.428,-0.084
6.429,-0.072
6.430,-0.070
6.431,-0.071
6.432,-0.084
6.433,-0.086
6.434,-0.094
6.435,-0.109
6.436,-0.121
6.437,-0.131
6.438,-0.145
6.439,-0.164
6.440,-0.193
6.441,-0.171
6.442,-0.211
6.443,-0.211
6.444,-0.214
6.445,-0.206
6.446,-0.196
6.447,-0.189
6.448,-0.176
6.449,-0.165
6.450,-0.149
6.451,-0.144
6.452,-0.136
6.453,-0.134
6.454,-0.136
6.455,-0.149
6.456,-0.154
6.457,-0.174
6.458,-0.194
6.459,-0.214
6.460,-0.261
6.461,-0.274
6.462,-0.286
6.463,-0.286
6.464,-0.286
6.465,-0.281
6.466,-0.270
6.467,-0.255
6.468,-0.234
6.469,-0.221
6.470,-0.209
6.471,-0.196
6.472,-0.190
6.473,-0.189
6.474,-0.195
6.475,-0.207
6.476,-0.219
6.477,-0.242
6.478,-0.261
6.479,-0.275
6.480,-0.309
6.481,-0.320
6.482,-0.321
6.483,-0.309
6.484,-0.297
6.485,-0.286
6.486,-0.271
6.487,-0.254
6.488,-0.233
6.489,-0.224
6.490,-0.215
6.491,-0.211
6.492,-0.216
6.493,-0.226
6.494,-0.246
6.495,-0.263
6.496,-0.282
6.497,-0.307
6.498,-0.329
6.499,-0.344
6.500,-0.371
6.501,-0.369
6.502,-0.356
6.503,-0.311
6.504,-0.312
6.505,-0.284
6.506,-0.261
6.507,-0.244
6.508,-0.228
6.509,-0.219
6.510,-0.216
6.511,-0.229
6.512,-0.246
6.513,-0.264
6.514,-0.289
6.515,-0.314
6.516,-0.341
6.517,-0.364
6.518,-0.376
6.519,-0.385
6.520,-0.401
6.521,-0.401
6.522,-0.393
6.523,-0.388
6.524,-0.384
6.525,-0.366
6.526,-0.349
6.527,-0.324
6.528,-0.296
6.529,-0.285
6.530,-0.271
6.531,-0.270
6.532,-0.274
6.533,-0.284
6.534,-0.301
6.535,-0.311
6.536,-0.331
6.537,-0.334
6.538,-0.347
6.539,-0.350
6.540,-0.352
6.541,-0.346
6.542,-0.341
6.543,-0.329
6.544,-0.321
6.545,-0.305
6.546,-0.296
6.547,-0.286
6.548,-0.280
6.549,-0.271
6.550,-0.273
6.551,-0.275
6.552,-0.285
6.553,-0.301
6.554,-0.325
6.555,-0.346
6.556,-0.364
6.557,-0.371
6.558,-0.374
6.559,-0.371
6.560,-0.324
6.561,-0.299
6.562,-0.274
6.563,-0.254
6.564,-0.234
6.565,-0.221
6.566,-0.214
6.567,-0.206
6.568,-0.209
6.569,-0.215
6.570,-0.226
6.571,-0.244
6.572,-0.256
6.573,-0.271
6.574,-0.286
6.575,-0.301
6.576,-0.307
6.577,-0.310
6.578,-0.309
6.579,-0.306
6.580,-0.290
6.581,-0.284
6.582,-0.274
6.583,-0.265
6.584,-0.250
6.585,-0.242
6.586,-0.234
6.587,-0.234
6.588,-0.231
6.589,-0.244
6.590,-0.256
6.591,-0.265
6.592,-0.275
6.593,-0.286
6.594,-0.291
6.595,-0.294
6.596,-0.295
6.597,-0.295
6.598,-0.285
6.599,-0.271
6.600,-0.234
6.601,-0.228
6.602,-0.216
6.603,-0.214
6.604,-0.214
6.605,-0.223
6.606,-0.244
6.607,-0.256
6.608,-0.270
6.609,-0.289
6.610,-0.296
6.611,-0.306
6.612,-0.311
6.613,-0.324
6.614,-0.312
6.615,-0.309
6.616,-0.296
6.617,-0.270
6.618,-0.250
6.619,-0.225
6.620,-0.205
6.621,-0.188
6.622,-0.188
6.623,-0.189
6.624,-0.198
6.625,-0.210
6.626,-0.224
6.627,-0.241
6.628,-0.256
6.629,-0.269
6.630,-0.281
6.631,-0.291
6.632,-0.294
6.633,-0.296
6.634,-0.294
6.635,-0.286
6.636,-0.275
6.637,-0.266
6.638,-0.256
6.639,-0.246
6.640,-0.216
6.641,-0.204
6.642,-0.205
6.643,-0.205
6.644,-0.214
6.645,-0.230
6.646,-0.250
6.647,-0.271
6.648,-0.291
6.649,-0.311
6.650,-0.326
6.651,-0.331
6.652,-0.334
6.653,-0.326
6.654,-0.306
6.655,-0.287
6.656,-0.264
6.657,-0.231
6.658,-0.204
6.659,-0.176
6.660,-0.134
6.661,-0.130
6.662,-0.134
6.663,-0.145
6.664,-0.165
6.665,-0.184
6.666,-0.201
6.667,-0.211
6.668,-0.224
6.669,-0.234
6.670,-0.245
6.671,-0.250
6.672,-0.249
6.673,-0.234
6.674,-0.217
6.675,-0.200
6.676,-0.176
6.677,-0.154
6.678,-0.136
6.679,-0.129
6.680,-0.124
6.681,-0.131
6.682,-0.134
6.683,-0.151
6.684,-0.170
6.685,-0.186
6.686,-0.205
6.687,-0.219
6.688,-0.231
6.689,-0.246
6.690,-0.249
6.691,-0.246
6.692,-0.233
6.693,-0.221
6.694,-0.209
6.695,-0.186
6.696,-0.171
6.697,-0.151
6.698,-0.141
6.699,-0.129
6.700,-0.135
6.701,-0.136
6.702,-0.149
6.703,-0.170
6.704,-0.184
6.705,-0.196
6.706,-0.214
6.707,-0.230
6.708,-0.241
6.709,-0.249
6.710,-0.250
6.711,-0.241
6.712,-0.229
6.713,-0.216
6.714,-0.206
6.715,-0.191
6.716,-0.175
6.717,-0.164
6.718,-0.149
6.719,-0.136
6.720,-0.135
6.721,-0.145
6.722,-0.166
6.723,-0.174
6.724,-0.186
6.725,-0.201
6.726,-0.209
6.727,-0.216
6.728,-0.224
6.729,-0.228
6.730,-0.225
6.731,-0.221
6.732,-0.212
6.733,-0.206
6.734,-0.191
6.735,-0.189
6.736,-0.181
6.737,-0.174
6.738,-0.166
6.739,-0.171
6.740,-0.184
6.741,-0.194
6.742,-0.206
6.743,-0.211
6.744,-0.221
6.745,-0.215
6.746,-0.210
6.747,-0.196
6.748,-0.184
6.749,-0.169
6.750,-0.145
6.751,-0.124
6.752,-0.109
6.753,-0.096
6.754,-0.091
6.755,-0.087
6.756,-0.091
6.757,-0.092
6.758,-0.106
6.759,-0.128
6.760,-0.175
6.761,-0.191
6.762,-0.214
6.763,-0.226
6.764,-0.226
6.765,-0.229
6.766,-0.225
6.767,-0.215
6.768,-0.204
6.769,-0.188
6.770,-0.170
6.771,-0.147
6.772,-0.130
6.773,-0.114
6.774,-0.106
6.775,-0.101
6.776,-0.096
6.777,-0.107
6.778,-0.115
6.779,-0.129
6.780,-0.170
6.781,-0.204
6.782,-0.219
6.783,-0.226
6.784,-0.234
6.785,-0.231
6.786,-0.231
6.787,-0.231
6.788,-0.230
6.789,-0.216
6.790,-0.209
6.791,-0.199
6.792,-0.190
6.793,-0.172
6.794,-0.163
6.795,-0.161
6.796,-0.166
6.797,-0.181
6.798,-0.191
6.799,-0.204
6.800,-0.219
6.801,-0.223
6.802,-0.221
6.803,-0.216
6.804,-0.211
6.805,-0.196
6.806,-0.184
6.807,-0.169
6.808,-0.150
6.809,-0.144
6.810,-0.129
6.811,-0.129
6.812,-0.129
6.813,-0.134
6.814,-0.144
6.815,-0.161
6.816,-0.174
6.817,-0.191
6.818,-0.209
6.819,-0.225
6.820,-0.256
6.821,-0.261
6.822,-0.263
6.823,-0.261
6.824,-0.249
6.825,-0.217
6.826,-0.198
6.827,-0.181
6.828,-0.164
6.829,-0.144
6.830,-0.129
6.831,-0.113
6.832,-0.109
6.833,-0.110
6.834,-0.121
6.835,-0.130
6.836,-0.149
6.837,-0.174
6.838,-0.189
6.839,-0.204
6.840,-0.228
6.841,-0.223
6.842,-0.231
6.843,-0.224
6.844,-0.206
6.845,-0.189
6.846,-0.169
6.847,-0.144
6.848,-0.126
6.849,-0.110
6.850,-0.101
6.851,-0.096
6.852,-0.104
6.853,-0.113
6.854,-0.129
6.855,-0.146
6.856,-0.171
6.857,-0.190
6.858,-0.206
6.859,-0.212
6.860,-0.196
6.861,-0.181
6.862,-0.150
6.863,-0.116
6.864,-0.085
6.865,-0.062
6.866,-0.049
6.867,-0.034
6.868,-0.031
6.869,-0.034
6.870,-0.044
6.871,-0.056
6.872,-0.071
6.873,-0.087
6.874,-0.104
6.875,-0.126
6.876,-0.145
6.877,-0.166
6.878,-0.184
6.879,-0.193
6.880,-0.191
6.881,-0.176
6.882,-0.175
6.883,-0.171
6.884,-0.171
6.885,-0.164
6.886,-0.160
6.887,-0.149
6.888,-0.151
6.889,-0.161
6.890,-0.171
6.891,-0.186
6.892,-0.198
6.893,-0.226
6.894,-0.251
6.895,-0.274
6.896,-0.301
6.897,-0.326
6.898,-0.345
6.899,-0.356
6.900,-0.333
6.901,-0.321
6.902,-0.292
6.903,-0.271
6.904,-0.249
6.905,-0.233
6.906,-0.223
6.907,-0.216
6.908,-0.221
6.909,-0.231
6.910,-0.246
6.911,-0.266
6.912,-0.281
6.913,-0.296
6.914,-0.329
6.915,-0.350
6.916,-0.366
6.917,-0.381
6.918,-0.390
6.919,-0.393
6.920,-0.371
6.921,-0.364
6.922,-0.341
6.923,-0.295
6.924,-0.280
6.925,-0.271
6.926,-0.270
6.927,-0.276
6.928,-0.289
6.929,-0.305
6.930,-0.323
6.931,-0.338
6.932,-0.350
6.933,-0.361
6.934,-0.369
6.935,-0.376
6.936,-0.381
6.937,-0.378
6.938,-0.371
6.939,-0.361
6.940,-0.341
6.941,-0.325
6.942,-0.314
6.943,-0.311
6.944,-0.310
6.945,-0.321
6.946,-0.324
6.947,-0.329
6.948,-0.344
6.949,-0.361
6.950,-0.374
6.951,-0.384
6.952,-0.390
6.953,-0.391
6.954,-0.384
6.955,-0.365
6.956,-0.344
6.957,-0.325
6.958,-0.296
6.959,-0.284
6.960,-0.246
6.961,-0.221
6.962,-0.210
6.963,-0.204
6.964,-0.204
6.965,-0.211
6.966,-0.226
6.967,-0.245
6.968,-0.266
6.969,-0.289
6.970,-0.321
6.971,-0.336
6.972,-0.370
6.973,-0.376
6.974,-0.388
6.975,-0.390
6.976,-0.391
6.977,-0.389
6.978,-0.383
6.979,-0.374
6.980,-0.364
6.981,-0.364
6.982,-0.369
6.983,-0.376
6.984,-0.376
6.985,-0.374
6.986,-0.364
6.987,-0.302
6.988,-0.269
6.989,-0.219
6.990,-0.164
6.991,-0.084
6.992,0.019
6.993,0.114
6.994,0.224
6.995,0.339
6.996,0.466
6.997,0.579
6.998,0.699
6.999,0.816
7.000,1.079
7.001,1.191
7.002,1.331
7.003,1.472
7.004,1.615
7.005,1.752
7.006,1.864
7.007,1.949
7.008,1.991
7.009,1.991
7.010,1.951
7.011,1.869
7.012,1.766
7.013,1.649
7.014,1.511
7.015,1.365
7.016,1.206
7.017,1.035
7.018,0.859
7.019,0.684
7.020,0.291
7.021,0.113
7.022,-0.021
7.023,-0.161
7.024,-0.284
7.025,-0.376
7.026,-0.453
7.027,-0.512
7.028,-0.561
7.029,-0.593
7.030,-0.613
7.031,-0.629
7.032,-0.574
7.033,-0.624
7.034,-0.627
7.035,-0.624
7.036,-0.618
7.037,-0.616
7.038,-0.614
7.039,-0.614
7.040,-0.621
7.041,-0.624
7.042,-0.629
7.043,-0.646
7.044,-0.649
7.045,-0.654
7.046,-0.649
7.047,-0.619
7.048,-0.593
7.049,-0.552
7.050,-0.524
7.051,-0.489
7.052,-0.464
7.053,-0.446
7.054,-0.440
7.055,-0.430
7.056,-0.431
7.057,-0.440
7.058,-0.444
7.059,-0.451
7.060,-0.474
7.061,-0.485
7.062,-0.494
7.063,-0.490
7.064,-0.491
7.065,-0.484
7.066,-0.481
7.067,-0.464
7.068,-0.461
7.069,-0.445
7.070,-0.434
7.071,-0.415
7.072,-0.407
7.073,-0.391
7.074,-0.391
7.075,-0.401
7.076,-0.405
7.077,-0.406
7.078,-0.406
7.079,-0.427
7.080,-0.441
7.081,-0.464
7.082,-0.481
7.083,-0.489
7.084,-0.489
7.085,-0.486
7.086,-0.471
7.087,-0.456
7.088,-0.446
7.089,-0.432
7.090,-0.424
7.091,-0.414
7.092,-0.406
7.093,-0.410
7.094,-0.414
7.095,-0.430
7.096,-0.436
7.097,-0.451
7.098,-0.464
7.099,-0.482
7.100,-0.489
7.101,-0.487
7.102,-0.482
7.103,-0.466
7.104,-0.446
7.105,-0.424
7.106,-0.404
7.107,-0.383
7.108,-0.365
7.109,-0.351
7.110,-0.344
7.111,-0.344
7.112,-0.345
7.113,-0.350
7.114,-0.357
7.115,-0.372
7.116,-0.389
7.117,-0.406
7.118,-0.421
7.119,-0.434
7.120,-0.461
7.121,-0.466
7.122,-0.465
7.123,-0.458
7.124,-0.450
7.125,-0.435
7.126,-0.426
7.127,-0.414
7.128,-0.405
7.129,-0.401
7.130,-0.386
7.131,-0.383
7.132,-0.378
7.133,-0.378
7.134,-0.390
7.135,-0.409
7.136,-0.429
7.137,-0.454
7.138,-0.481
7.139,-0.504
7.140,-0.516
7.141,-0.510
7.142,-0.490
7.143,-0.468
7.144,-0.444
7.145,-0.426
7.146,-0.410
7.147,-0.394
7.148,-0.379
7.149,-0.369
7.150,-0.357
7.151,-0.349
7.152,-0.344
7.153,-0.344
7.154,-0.346
7.155,-0.351
7.156,-0.364
7.157,-0.369
7.158,-0.375
7.159,-0.381
7.160,-0.386
7.161,-0.371
7.162,-0.364
7.163,-0.351
7.164,-0.336
7.165,-0.329
7.166,-0.312
7.167,-0.306
7.168,-0.310
7.169,-0.309
7.170,-0.324
7.171,-0.334
7.172,-0.349
7.173,-0.367
7.174,-0.384
7.175,-0.404
7.176,-0.414
7.177,-0.421
7.178,-0.426
7.179,-0.429
7.180,-0.421
7.181,-0.406
7.182,-0.389
7.183,-0.371
7.184,-0.351
7.185,-0.331
7.186,-0.314
7.187,-0.302
7.188,-0.295
7.189,-0.291
7.190,-0.294
7.191,-0.299
7.192,-0.306
7.193,-0.321
7.194,-0.334
7.195,-0.344
7.196,-0.361
7.197,-0.371
7.198,-0.381
7.199,-0.384
7.200,-0.370
7.201,-0.364
7.202,-0.341
7.203,-0.323
7.204,-0.299
7.205,-0.276
7.206,-0.261
7.207,-0.255
7.208,-0.251
7.209,-0.256
7.210,-0.269
7.211,-0.281
7.212,-0.294
7.213,-0.311
7.214,-0.329
7.215,-0.346
7.216,-0.356
7.217,-0.366
7.218,-0.367
7.219,-0.364
7.220,-0.331
7.221,-0.321
7.222,-0.296
7.223,-0.275
7.224,-0.263
7.225,-0.253
7.226,-0.250
7.227,-0.251
7.228,-0.254
7.229,-0.261
7.230,-0.265
7.231,-0.263
7.232,-0.261
7.233,-0.261
7.234,-0.263
7.235,-0.269
7.236,-0.266
7.237,-0.271
7.238,-0.271
7.239,-0.269
7.240,-0.233
7.241,-0.186
7.242,-0.166
7.243,-0.146
7.244,-0.136
7.245,-0.129
7.246,-0.141
7.247,-0.164
7.248,-0.186
7.249,-0.214
7.250,-0.233
7.251,-0.261
7.252,-0.274
7.253,-0.286
7.254,-0.295
7.255,-0.294
7.256,-0.291
7.257,-0.285
7.258,-0.274
7.259,-0.261
7.260,-0.244
7.261,-0.231
7.262,-0.233
7.263,-0.247
7.264,-0.265
7.265,-0.280
7.266,-0.292
7.267,-0.306
7.268,-0.314
7.269,-0.323
7.270,-0.333
7.271,-0.336
7.272,-0.346
7.273,-0.346
7.274,-0.347
7.275,-0.345
7.276,-0.344
7.277,-0.336
7.278,-0.331
7.279,-0.331
7.280,-0.334
7.281,-0.346
7.282,-0.362
7.283,-0.374
7.284,-0.385
7.285,-0.401
7.286,-0.414
7.287,-0.430
7.288,-0.441
7.289,-0.451
7.290,-0.458
7.291,-0.464
7.292,-0.470
7.293,-0.469
7.294,-0.468
7.295,-0.463
7.296,-0.455
7.297,-0.446
7.298,-0.441
7.299,-0.435
7.300,-0.427
7.301,-0.435
7.302,-0.443
7.303,-0.451
7.304,-0.469
7.305,-0.486
7.306,-0.501
7.307,-0.516
7.308,-0.529
7.309,-0.541
7.310,-0.552
7.311,-0.581
7.312,-0.546
7.313,-0.536
7.314,-0.521
7.315,-0.496
7.316,-0.471
7.317,-0.445
7.318,-0.424
7.319,-0.401
7.320,-0.386
7.321,-0.404
7.322,-0.411
7.323,-0.424
7.324,-0.446
7.325,-0.465
7.326,-0.489
7.327,-0.506
7.328,-0.519
7.329,-0.524
7.330,-0.522
7.331,-0.515
7.332,-0.501
7.333,-0.484
7.334,-0.464
7.335,-0.443
7.336,-0.425
7.337,-0.404
7.338,-0.385
7.339,-0.376
7.340,-0.381
7.341,-0.390
7.342,-0.406
7.343,-0.429
7.344,-0.446
7.345,-0.464
7.346,-0.489
7.347,-0.504
7.348,-0.514
7.349,-0.521
7.350,-0.512
7.351,-0.509
7.352,-0.494
7.353,-0.472
7.354,-0.454
7.355,-0.426
7.356,-0.407
7.357,-0.378
7.358,-0.365
7.359,-0.356
7.360,-0.381
7.361,-0.404
7.362,-0.429
7.363,-0.451
7.364,-0.475
7.365,-0.495
7.366,-0.504
7.367,-0.504
7.368,-0.502
7.369,-0.489
7.370,-0.471
7.371,-0.451
7.372,-0.435
7.373,-0.411
7.374,-0.356
7.375,-0.369
7.376,-0.355
7.377,-0.349
7.378,-0.351
7.379,-0.361
7.380,-0.372
7.381,-0.376
7.382,-0.385
7.383,-0.401
7.384,-0.409
7.385,-0.421
7.386,-0.424
7.387,-0.426
7.388,-0.421
7.389,-0.414
7.390,-0.404
7.391,-0.389
7.392,-0.371
7.393,-0.362
7.394,-0.349
7.395,-0.341
7.396,-0.344
7.397,-0.344
7.398,-0.354
7.399,-0.365
7.400,-0.391
7.401,-0.411
7.402,-0.426
7.403,-0.446
7.404,-0.461
7.405,-0.472
7.406,-0.491
7.407,-0.491
7.408,-0.491
7.409,-0.474
7.410,-0.451
7.411,-0.431
7.412,-0.409
7.413,-0.389
7.414,-0.369
7.415,-0.349
7.416,-0.338
7.417,-0.330
7.418,-0.331
7.419,-0.341
7.420,-0.366
7.421,-0.385
7.422,-0.401
7.423,-0.412
7.424,-0.426
7.425,-0.426
7.426,-0.421
7.427,-0.414
7.428,-0.403
7.429,-0.383
7.430,-0.357
7.431,-0.338
7.432,-0.312
7.433,-0.295
7.434,-0.290
7.435,-0.289
7.436,-0.291
7.437,-0.306
7.438,-0.328
7.439,-0.343
7.440,-0.389
7.441,-0.407
7.442,-0.420
7.443,-0.421
7.444,-0.416
7.445,-0.403
7.446,-0.385
7.447,-0.357
7.448,-0.335
7.449,-0.306
7.450,-0.281
7.451,-0.263
7.452,-0.249
7.453,-0.241
7.454,-0.244
7.455,-0.250
7.456,-0.265
7.457,-0.284
7.458,-0.311
7.459,-0.336
7.460,-0.374
7.461,-0.388
7.462,-0.384
7.463,-0.376
7.464,-0.365
7.465,-0.349
7.466,-0.329
7.467,-0.305
7.468,-0.289
7.469,-0.266
7.470,-0.256
7.471,-0.256
7.472,-0.261
7.473,-0.270
7.474,-0.286
7.475,-0.301
7.476,-0.324
7.477,-0.346
7.478,-0.364
7.479,-0.384
7.480,-0.421
7.481,-0.424
7.482,-0.421
7.483,-0.415
7.484,-0.409
7.485,-0.391
7.486,-0.384
7.487,-0.366
7.488,-0.350
7.489,-0.330
7.490,-0.309
7.491,-0.297
7.492,-0.296
7.493,-0.304
7.494,-0.311
7.495,-0.321
7.496,-0.333
7.497,-0.345
7.498,-0.354
7.499,-0.369
7.500,-0.401
7.501,-0.389
7.502,-0.389
7.503,-0.386
7.504,-0.374
7.505,-0.356
7.506,-0.341
7.507,-0.326
7.508,-0.309
7.509,-0.301
7.510,-0.296
7.511,-0.306
7.512,-0.314
7.513,-0.331
7.514,-0.345
7.515,-0.357
7.516,-0.370
7.517,-0.384
7.518,-0.390
7.519,-0.401
7.520,-0.407
7.521,-0.403
7.522,-0.390
7.523,-0.374
7.524,-0.366
7.525,-0.351
7.526,-0.335
7.527,-0.326
7.528,-0.324
7.529,-0.311
7.530,-0.321
7.531,-0.326
7.532,-0.333
7.533,-0.346
7.534,-0.355
7.535,-0.372
7.536,-0.384
7.537,-0.401
7.538,-0.411
7.539,-0.411
7.540,-0.406
7.541,-0.381
7.542,-0.361
7.543,-0.331
7.544,-0.301
7.545,-0.286
7.546,-0.269
7.547,-0.268
7.548,-0.271
7.549,-0.276
7.550,-0.290
7.551,-0.311
7.552,-0.334
7.553,-0.352
7.554,-0.366
7.555,-0.383
7.556,-0.389
7.557,-0.404
7.558,-0.412
7.559,-0.411
7.560,-0.426
7.561,-0.344
7.562,-0.329
7.563,-0.306
7.564,-0.306
7.565,-0.305
7.566,-0.309
7.567,-0.324
7.568,-0.334
7.569,-0.350
7.570,-0.364
7.571,-0.375
7.572,-0.386
7.573,-0.390
7.574,-0.389
7.575,-0.385
7.576,-0.374
7.577,-0.362
7.578,-0.336
7.579,-0.324
7.580,-0.285
7.581,-0.269
7.582,-0.268
7.583,-0.271
7.584,-0.280
7.585,-0.294
7.586,-0.312
7.587,-0.326
7.588,-0.341
7.589,-0.351
7.590,-0.369
7.591,-0.376
7.592,-0.383
7.593,-0.383
7.594,-0.379
7.595,-0.371
7.596,-0.366
7.597,-0.354
7.598,-0.336
7.599,-0.321
7.600,-0.289
7.601,-0.284
7.602,-0.281
7.603,-0.281
7.604,-0.286
7.605,-0.292
7.606,-0.309
7.607,-0.329
7.608,-0.344
7.609,-0.361
7.610,-0.366
7.611,-0.375
7.612,-0.371
7.613,-0.369
7.614,-0.357
7.615,-0.343
7.616,-0.326
7.617,-0.306
7.618,-0.292
7.619,-0.286
7.620,-0.330
7.621,-0.284
7.622,-0.291
7.623,-0.306
7.624,-0.326
7.625,-0.346
7.626,-0.355
7.627,-0.371
7.628,-0.381
7.629,-0.385
7.630,-0.386
7.631,-0.384
7.632,-0.374
7.633,-0.364
7.634,-0.349
7.635,-0.329
7.636,-0.306
7.637,-0.292
7.638,-0.286
7.639,-0.281
7.640,-0.294
7.641,-0.310
7.642,-0.329
7.643,-0.343
7.644,-0.356
7.645,-0.369
7.646,-0.384
7.647,-0.401
7.648,-0.409
7.649,-0.415
7.650,-0.421
7.651,-0.411
7.652,-0.393
7.653,-0.374
7.654,-0.354
7.655,-0.334
7.656,-0.324
7.657,-0.297
7.658,-0.289
7.659,-0.290
7.660,-0.321
7.661,-0.331
7.662,-0.355
7.663,-0.376
7.664,-0.403
7.665,-0.410
7.666,-0.414
7.667,-0.410
7.668,-0.404
7.669,-0.386
7.670,-0.376
7.671,-0.365
7.672,-0.350
7.673,-0.338
7.674,-0.329
7.675,-0.310
7.676,-0.309
7.677,-0.305
7.678,-0.304
7.679,-0.306
7.680,-0.333
7.681,-0.346
7.682,-0.351
7.683,-0.384
7.684,-0.369
7.685,-0.375
7.686,-0.378
7.687,-0.379
7.688,-0.379
7.689,-0.369
7.690,-0.356
7.691,-0.345
7.692,-0.331
7.693,-0.311
7.694,-0.304
7.695,-0.294
7.696,-0.291
7.697,-0.291
7.698,-0.296
7.699,-0.307
7.700,-0.341
7.701,-0.352
7.702,-0.366
7.703,-0.381
7.704,-0.391
7.705,-0.404
7.706,-0.409
7.707,-0.411
7.708,-0.403
7.709,-0.391
7.710,-0.381
7.711,-0.371
7.712,-0.355
7.713,-0.343
7.714,-0.334
7.715,-0.315
7.716,-0.314
7.717,-0.321
7.718,-0.329
7.719,-0.344
7.720,-0.378
7.721,-0.390
7.722,-0.409
7.723,-0.422
7.724,-0.432
7.725,-0.436
7.726,-0.436
7.727,-0.434
7.728,-0.424
7.729,-0.406
7.730,-0.394
7.731,-0.378
7.732,-0.366
7.733,-0.356
7.734,-0.351
7.735,-0.351
7.736,-0.354
7.737,-0.366
7.738,-0.372
7.739,-0.384
7.740,-0.406
7.741,-0.411
7.742,-0.416
7.743,-0.424
7.744,-0.431
7.745,-0.431
7.746,-0.422
7.747,-0.409
7.748,-0.389
7.749,-0.376
7.750,-0.361
7.751,-0.341
7.752,-0.344
7.753,-0.336
7.754,-0.344
7.755,-0.352
7.756,-0.364
7.757,-0.374
7.758,-0.389
7.759,-0.409
7.760,-0.432
7.761,-0.440
7.762,-0.434
7.763,-0.426
7.764,-0.414
7.765,-0.388
7.766,-0.364
7.767,-0.336
7.768,-0.310
7.769,-0.289
7.770,-0.276
7.771,-0.266
7.772,-0.268
7.773,-0.271
7.774,-0.280
7.775,-0.289
7.776,-0.299
7.777,-0.314
7.778,-0.334
7.779,-0.354
7.780,-0.384
7.781,-0.409
7.782,-0.404
7.783,-0.386
7.784,-0.367
7.785,-0.346
7.786,-0.324
7.787,-0.297
7.788,-0.276
7.789,-0.261
7.790,-0.247
7.791,-0.233
7.792,-0.226
7.793,-0.216
7.794,-0.212
7.795,-0.214
7.796,-0.223
7.797,-0.226
7.798,-0.230
7.799,-0.233
7.800,-0.246
7.801,-0.251
7.802,-0.254
7.803,-0.261
7.804,-0.260
7.805,-0.256
7.806,-0.253
7.807,-0.251
7.808,-0.216
7.809,-0.254
7.810,-0.261
7.811,-0.269
7.812,-0.284
7.813,-0.301
7.814,-0.323
7.815,-0.343
7.816,-0.354
7.817,-0.374
7.818,-0.386
7.819,-0.394
7.820,-0.405
7.821,-0.400
7.822,-0.386
7.823,-0.369
7.824,-0.351
7.825,-0.331
7.826,-0.310
7.827,-0.294
7.828,-0.287
7.829,-0.286
7.830,-0.294
7.831,-0.306
7.832,-0.326
7.833,-0.344
7.834,-0.364
7.835,-0.381
7.836,-0.403
7.837,-0.414
7.838,-0.422
7.839,-0.427
7.840,-0.426
7.841,-0.420
7.842,-0.404
7.843,-0.393
7.844,-0.376
7.845,-0.370
7.846,-0.356
7.847,-0.354
7.848,-0.351
7.849,-0.355
7.850,-0.365
7.851,-0.371
7.852,-0.389
7.853,-0.411
7.854,-0.431
7.855,-0.449
7.856,-0.466
7.857,-0.484
7.858,-0.471
7.859,-0.454
7.860,-0.390
7.861,-0.331
7.862,-0.310
7.863,-0.289
7.864,-0.275
7.865,-0.274
7.866,-0.271
7.867,-0.286
7.868,-0.299
7.869,-0.321
7.870,-0.401
7.871,-0.369
7.872,-0.389
7.873,-0.411
7.874,-0.431
7.875,-0.441
7.876,-0.449
7.877,-0.450
7.878,-0.450
7.879,-0.445
7.880,-0.420
7.881,-0.409
7.882,-0.391
7.883,-0.384
7.884,-0.376
7.885,-0.374
7.886,-0.376
7.887,-0.384
7.888,-0.390
7.889,-0.401
7.890,-0.406
7.891,-0.414
7.892,-0.422
7.893,-0.427
7.894,-0.430
7.895,-0.429
7.896,-0.426
7.897,-0.415
7.898,-0.404
7.899,-0.389
7.900,-0.378
7.901,-0.350
7.902,-0.384
7.903,-0.388
7.904,-0.388
7.905,-0.390
7.906,-0.406
7.907,-0.416
7.908,-0.434
7.909,-0.456
7.910,-0.482
7.911,-0.494
7.912,-0.506
7.913,-0.506
7.914,-0.495
7.915,-0.471
7.916,-0.436
7.917,-0.390
7.918,-0.330
7.919,-0.264
7.920,-0.091
7.921,-0.015
7.922,0.079
7.923,0.179
7.924,0.274
7.925,0.374
7.926,0.494
7.927,0.570
7.928,0.670
7.929,0.771
7.930,0.875
7.931,1.006
7.932,1.136
7.933,1.290
7.934,1.430
7.935,1.577
7.936,1.695
7.937,1.784
7.938,1.826
7.939,1.835
7.940,1.709
7.941,1.615
7.942,1.476
7.943,1.319
7.944,1.144
7.945,0.956
7.946,0.765
7.947,0.570
7.948,0.376
7.949,0.196
7.950,0.031
7.951,-0.111
7.952,-0.247
7.953,-0.330
7.954,-0.411
7.955,-0.464
7.956,-0.506
7.957,-0.531
7.958,-0.554
7.959,-0.576
7.960,-0.616
7.961,-0.660
7.962,-0.686
7.963,-0.710
7.964,-0.736
7.965,-0.749
7.966,-0.754
7.967,-0.754
7.968,-0.746
7.969,-0.733
7.970,-0.711
7.971,-0.690
7.972,-0.667
7.973,-0.630
7.974,-0.605
7.975,-0.574
7.976,-0.549
7.977,-0.526
7.978,-0.504
7.979,-0.490
7.980,-0.484
7.981,-0.489
7.982,-0.494
7.983,-0.516
7.984,-0.530
7.985,-0.551
7.986,-0.569
7.987,-0.586
7.988,-0.601
7.989,-0.609
7.990,-0.606
7.991,-0.604
7.992,-0.589
7.993,-0.571
7.994,-0.546
7.995,-0.526
7.996,-0.454
7.997,-0.491
7.998,-0.474
7.999,-0.465
8.000,-0.464
8.001,-0.468
8.002,-0.480
8.003,-0.490
8.004,-0.501
8.005,-0.511
8.006,-0.526
8.007,-0.536
8.008,-0.547
8.009,-0.551
8.010,-0.546
8.011,-0.536
8.012,-0.516
8.013,-0.495
8.014,-0.463
8.015,-0.434
8.016,-0.411
8.017,-0.391
8.018,-0.386
8.019,-0.384
8.020,-0.406
8.021,-0.421
8.022,-0.434
8.023,-0.448
8.024,-0.451
8.025,-0.456
8.026,-0.481
8.027,-0.449
8.028,-0.445
8.029,-0.431
8.030,-0.427
8.031,-0.412
8.032,-0.404
8.033,-0.389
8.034,-0.381
8.035,-0.376
8.036,-0.372
8.037,-0.374
8.038,-0.384
8.039,-0.391
8.040,-0.429
8.041,-0.435
8.042,-0.449
8.043,-0.456
8.044,-0.469
8.045,-0.474
8.046,-0.474
8.047,-0.470
8.048,-0.456
8.049,-0.443
8.050,-0.425
8.051,-0.411
8.052,-0.391
8.053,-0.386
8.054,-0.374
8.055,-0.369
8.056,-0.370
8.057,-0.364
8.058,-0.356
8.059,-0.336
8.060,-0.371
8.061,-0.381
8.062,-0.389
8.063,-0.404
8.064,-0.404
8.065,-0.406
8.066,-0.394
8.067,-0.381
8.068,-0.369
8.069,-0.350
8.070,-0.341
8.071,-0.329
8.072,-0.320
8.073,-0.306
8.074,-0.304
8.075,-0.306
8.076,-0.321
8.077,-0.325
8.078,-0.336
8.079,-0.350
8.080,-0.376
8.081,-0.386
8.082,-0.391
8.083,-0.391
8.084,-0.383
8.085,-0.369
8.086,-0.354
8.087,-0.334
8.088,-0.269
8.089,-0.297
8.090,-0.284
8.091,-0.273
8.092,-0.271
8.093,-0.270
8.094,-0.274
8.095,-0.285
8.096,-0.292
8.097,-0.311
8.098,-0.330
8.099,-0.341
8.100,-0.352
8.101,-0.352
8.102,-0.350
8.103,-0.344
8.104,-0.331
8.105,-0.321
8.106,-0.296
8.107,-0.281
8.108,-0.264
8.109,-0.242
8.110,-0.223
8.111,-0.209
8.112,-0.209
8.113,-0.206
8.114,-0.214
8.115,-0.229
8.116,-0.250
8.117,-0.261
8.118,-0.266
8.119,-0.266
8.120,-0.271
8.121,-0.282
8.122,-0.281
8.123,-0.274
8.124,-0.256
8.125,-0.242
8.126,-0.211
8.127,-0.194
8.128,-0.174
8.129,-0.164
8.130,-0.147
8.131,-0.142
8.132,-0.136
8.133,-0.141
8.134,-0.145
8.135,-0.152
8.136,-0.165
8.137,-0.174
8.138,-0.174
8.139,-0.181
8.140,-0.171
8.141,-0.146
8.142,-0.124
8.143,-0.102
8.144,-0.086
8.145,-0.066
8.146,-0.054
8.147,-0.044
8.148,-0.041
8.149,-0.085
8.150,0.028
8.151,-0.035
8.152,-0.046
8.153,-0.056
8.154,-0.069
8.155,-0.089
8.156,-0.101
8.157,-0.111
8.158,-0.116
8.159,-0.114
8.160,-0.090
8.161,-0.074
8.162,-0.056
8.163,-0.049
8.164,-0.031
8.165,-0.014
8.166,-0.004
8.167,0.014
8.168,0.013
8.169,0.010
8.170,-0.009
8.171,-0.029
8.172,-0.046
8.173,-0.064
8.174,-0.083
8.175,-0.101
8.176,-0.109
8.177,-0.116
8.178,-0.124
8.179,-0.125
8.180,-0.066
8.181,-0.105
8.182,-0.092
8.183,-0.069
8.184,-0.054
8.185,-0.039
8.186,-0.031
8.187,-0.029
8.188,-0.033
8.189,-0.045
8.190,-0.056
8.191,-0.071
8.192,-0.091
8.193,-0.109
8.194,-0.126
8.195,-0.139
8.196,-0.160
8.197,-0.164
8.198,-0.169
8.199,-0.170
8.200,-0.166
8.201,-0.166
8.202,-0.149
8.203,-0.141
8.204,-0.130
8.205,-0.126
8.206,-0.128
8.207,-0.134
8.208,-0.144
8.209,-0.164
8.210,-0.182
8.211,-0.203
8.212,-0.228
8.213,-0.254
8.214,-0.275
8.215,-0.294
8.216,-0.307
8.217,-0.311
8.218,-0.310
8.219,-0.304
8.220,-0.274
8.221,-0.263
8.222,-0.254
8.223,-0.247
8.224,-0.246
8.225,-0.249
8.226,-0.254
8.227,-0.265
8.228,-0.281
8.229,-0.296
8.230,-0.314
8.231,-0.334
8.232,-0.344
8.233,-0.346
8.234,-0.349
8.235,-0.349
8.236,-0.343
8.237,-0.329
8.238,-0.323
8.239,-0.307
8.240,-0.295
8.241,-0.289
8.242,-0.289
8.243,-0.286
8.244,-0.294
8.245,-0.307
8.246,-0.314
8.247,-0.331
8.248,-0.347
8.249,-0.364
8.250,-0.370
8.251,-0.378
8.252,-0.384
8.253,-0.386
8.254,-0.381
8.255,-0.376
8.256,-0.369
8.257,-0.356
8.258,-0.350
8.259,-0.340
8.260,-0.324
8.261,-0.321
8.262,-0.307
8.263,-0.307
8.264,-0.312
8.265,-0.324
8.266,-0.331
8.267,-0.344
8.268,-0.356
8.269,-0.371
8.270,-0.381
8.271,-0.386
8.272,-0.384
8.273,-0.376
8.274,-0.367
8.275,-0.349
8.276,-0.344
8.277,-0.304
8.278,-0.284
8.279,-0.268
8.280,-0.244
8.281,-0.241
8.282,-0.246
8.283,-0.255
8.284,-0.270
8.285,-0.289
8.286,-0.310
8.287,-0.334
8.288,-0.356
8.289,-0.369
8.290,-0.381
8.291,-0.384
8.292,-0.386
8.293,-0.376
8.294,-0.365
8.295,-0.347
8.296,-0.328
8.297,-0.306
8.298,-0.290
8.299,-0.281
8.300,-0.269
8.301,-0.276
8.302,-0.284
8.303,-0.294
8.304,-0.309
8.305,-0.321
8.306,-0.329
8.307,-0.344
8.308,-0.351
8.309,-0.364
8.310,-0.366
8.311,-0.361
8.312,-0.350
8.313,-0.335
8.314,-0.311
8.315,-0.290
8.316,-0.266
8.317,-0.250
8.318,-0.231
8.319,-0.221
8.320,-0.231
8.321,-0.242
8.322,-0.251
8.323,-0.266
8.324,-0.278
8.325,-0.291
8.326,-0.301
8.327,-0.309
8.328,-0.314
8.329,-0.311
8.330,-0.311
8.331,-0.304
8.332,-0.294
8.333,-0.284
8.334,-0.269
8.335,-0.256
8.336,-0.249
8.337,-0.240
8.338,-0.229
8.339,-0.229
8.340,-0.246
8.341,-0.256
8.342,-0.270
8.343,-0.287
8.344,-0.304
8.345,-0.325
8.346,-0.335
8.347,-0.341
8.348,-0.335
8.349,-0.326
8.350,-0.304
8.351,-0.284
8.352,-0.261
8.353,-0.246
8.354,-0.226
8.355,-0.215
8.356,-0.210
8.357,-0.209
8.358,-0.216
8.359,-0.226
8.360,-0.260
8.361,-0.273
8.362,-0.291
8.363,-0.309
8.364,-0.314
8.365,-0.326
8.366,-0.328
8.367,-0.326
8.368,-0.320
8.369,-0.302
8.370,-0.290
8.371,-0.274
8.372,-0.261
8.373,-0.251
8.374,-0.246
8.375,-0.241
8.376,-0.241
8.377,-0.234
8.378,-0.234
8.379,-0.233
8.380,-0.241
8.381,-0.246
8.382,-0.253
8.383,-0.263
8.384,-0.269
8.385,-0.276
8.386,-0.281
8.387,-0.274
8.388,-0.270
8.389,-0.263
8.390,-0.253
8.391,-0.247
8.392,-0.241
8.393,-0.231
8.394,-0.229
8.395,-0.231
8.396,-0.244
8.397,-0.261
8.398,-0.276
8.399,-0.296
8.400,-0.344
8.401,-0.351
8.402,-0.355
8.403,-0.356
8.404,-0.354
8.405,-0.355
8.406,-0.349
8.407,-0.336
8.408,-0.323
8.409,-0.296
8.410,-0.271
8.411,-0.234
8.412,-0.206
8.413,-0.186
8.414,-0.171
8.415,-0.165
8.416,-0.166
8.417,-0.171
8.418,-0.186
8.419,-0.211
8.420,-0.261
8.421,-0.281
8.422,-0.295
8.423,-0.306
8.424,-0.309
8.425,-0.309
8.426,-0.302
8.427,-0.295
8.428,-0.289
8.429,-0.274
8.430,-0.265
8.431,-0.256
8.432,-0.214
8.433,-0.246
8.434,-0.246
8.435,-0.251
8.436,-0.258
8.437,-0.275
8.438,-0.289
8.439,-0.304
8.440,-0.334
8.441,-0.346
8.442,-0.345
8.443,-0.345
8.444,-0.336
8.445,-0.329
8.446,-0.311
8.447,-0.304
8.448,-0.289
8.449,-0.284
8.450,-0.271
8.451,-0.271
8.452,-0.271
8.453,-0.276
8.454,-0.286
8.455,-0.299
8.456,-0.325
8.457,-0.334
8.458,-0.344
8.459,-0.346
8.460,-0.341
8.461,-0.336
8.462,-0.329
8.463,-0.321
8.464,-0.309
8.465,-0.304
8.466,-0.296
8.467,-0.291
8.468,-0.290
8.469,-0.291
8.470,-0.291
8.471,-0.291
8.472,-0.299
8.473,-0.307
8.474,-0.326
8.475,-0.344
8.476,-0.356
8.477,-0.369
8.478,-0.375
8.479,-0.375
8.480,-0.375
8.481,-0.369
8.482,-0.356
8.483,-0.351
8.484,-0.333
8.485,-0.321
8.486,-0.300
8.487,-0.291
8.488,-0.286
8.489,-0.289
8.490,-0.290
8.491,-0.304
8.492,-0.261
8.493,-0.334
8.494,-0.351
8.495,-0.367
8.496,-0.378
8.497,-0.388
8.498,-0.391
8.499,-0.401
8.500,-0.389
8.501,-0.381
8.502,-0.369
8.503,-0.351
8.504,-0.334
8.505,-0.321
8.506,-0.305
8.507,-0.295
8.508,-0.291
8.509,-0.291
8.510,-0.304
8.511,-0.311
8.512,-0.331
8.513,-0.349
8.514,-0.364
8.515,-0.375
8.516,-0.384
8.517,-0.388
8.518,-0.383
8.519,-0.384
8.520,-0.364
8.521,-0.356
8.522,-0.346
8.523,-0.364
8.524,-0.326
8.525,-0.307
8.526,-0.291
8.527,-0.284
8.528,-0.285
8.529,-0.291
8.530,-0.304
8.531,-0.324
8.532,-0.334
8.533,-0.344
8.534,-0.354
8.535,-0.362
8.536,-0.366
8.537,-0.361
8.538,-0.352
8.539,-0.346
8.540,-0.310
8.541,-0.296
8.542,-0.289
8.543,-0.271
8.544,-0.263
8.545,-0.253
8.546,-0.251
8.547,-0.260
8.548,-0.263
8.549,-0.281
8.550,-0.291
8.551,-0.310
8.552,-0.334
8.553,-0.351
8.554,-0.370
8.555,-0.376
8.556,-0.426
8.557,-0.371
8.558,-0.364
8.559,-0.351
8.560,-0.309
8.561,-0.295
8.562,-0.274
8.563,-0.265
8.564,-0.263
8.565,-0.265
8.566,-0.276
8.567,-0.291
8.568,-0.304
8.569,-0.326
8.570,-0.345
8.571,-0.364
8.572,-0.378
8.573,-0.385
8.574,-0.386
8.575,-0.384
8.576,-0.378
8.577,-0.366
8.578,-0.355
8.579,-0.344
8.580,-0.296
8.581,-0.285
8.582,-0.269
8.583,-0.254
8.584,-0.244
8.585,-0.241
8.586,-0.234
8.587,-0.244
8.588,-0.251
8.589,-0.264
8.590,-0.276
8.591,-0.290
8.592,-0.301
8.593,-0.309
8.594,-0.306
8.595,-0.297
8.596,-0.286
8.597,-0.266
8.598,-0.250
8.599,-0.230
8.600,-0.210
8.601,-0.209
8.602,-0.210
8.603,-0.211
8.604,-0.221
8.605,-0.230
8.606,-0.250
8.607,-0.261
8.608,-0.274
8.609,-0.289
8.610,-0.296
8.611,-0.304
8.612,-0.304
8.613,-0.301
8.614,-0.294
8.615,-0.282
8.616,-0.269
8.617,-0.251
8.618,-0.234
8.619,-0.216
8.620,-0.194
8.621,-0.191
8.622,-0.194
8.623,-0.204
8.624,-0.211
8.625,-0.226
8.626,-0.246
8.627,-0.260
8.628,-0.265
8.629,-0.274
8.630,-0.281
8.631,-0.284
8.632,-0.281
8.633,-0.281
8.634,-0.270
8.635,-0.255
8.636,-0.244
8.637,-0.225
8.638,-0.215
8.639,-0.203
8.640,-0.193
8.641,-0.201
8.642,-0.211
8.643,-0.226
8.644,-0.244
8.645,-0.256
8.646,-0.269
8.647,-0.275
8.648,-0.290
8.649,-0.284
8.650,-0.276
8.651,-0.269
8.652,-0.261
8.653,-0.249
8.654,-0.230
8.655,-0.221
8.656,-0.210
8.657,-0.204
8.658,-0.201
8.659,-0.201
8.660,-0.209
8.661,-0.230
8.662,-0.246
8.663,-0.266
8.664,-0.284
8.665,-0.301
8.666,-0.321
8.667,-0.333
8.668,-0.336
8.669,-0.338
8.670,-0.328
8.671,-0.314
8.672,-0.301
8.673,-0.284
8.674,-0.266
8.675,-0.251
8.676,-0.231
8.677,-0.219
8.678,-0.207
8.679,-0.206
8.680,-0.217
8.681,-0.231
8.682,-0.249
8.683,-0.265
8.684,-0.269
8.685,-0.269
8.686,-0.264
8.687,-0.261
8.688,-0.246
8.689,-0.241
8.690,-0.226
8.691,-0.216
8.692,-0.212
8.693,-0.206
8.694,-0.203
8.695,-0.204
8.696,-0.206
8.697,-0.211
8.698,-0.221
8.699,-0.231
8.700,-0.286
8.701,-0.299
8.702,-0.320
8.703,-0.329
8.704,-0.334
8.705,-0.335
8.706,-0.341
8.707,-0.331
8.708,-0.325
8.709,-0.306
8.710,-0.291
8.711,-0.274
8.712,-0.266
8.713,-0.261
8.714,-0.254
8.715,-0.254
8.716,-0.251
8.717,-0.264
8.718,-0.270
8.719,-0.281
8.720,-0.309
8.721,-0.321
8.722,-0.334
8.723,-0.336
8.724,-0.336
8.725,-0.335
8.726,-0.328
8.727,-0.321
8.728,-0.304
8.729,-0.294
8.730,-0.289
8.731,-0.282
8.732,-0.276
8.733,-0.276
8.734,-0.285
8.735,-0.291
8.736,-0.304
8.737,-0.311
8.738,-0.328
8.739,-0.331
8.740,-0.324
8.741,-0.309
8.742,-0.291
8.743,-0.286
8.744,-0.271
8.745,-0.245
8.746,-0.229
8.747,-0.219
8.748,-0.210
8.749,-0.204
8.750,-0.196
8.751,-0.196
8.752,-0.204
8.753,-0.212
8.754,-0.225
8.755,-0.244
8.756,-0.261
8.757,-0.266
8.758,-0.273
8.759,-0.268
8.760,-0.256
8.761,-0.249
8.762,-0.246
8.763,-0.241
8.764,-0.225
8.765,-0.210
8.766,-0.190
8.767,-0.171
8.768,-0.161
8.769,-0.144
8.770,-0.138
8.771,-0.144
8.772,-0.145
8.773,-0.151
8.774,-0.166
8.775,-0.175
8.776,-0.186
8.777,-0.201
8.778,-0.209
8.779,-0.215
8.780,-0.215
8.781,-0.206
8.782,-0.194
8.783,-0.181
8.784,-0.161
8.785,-0.130
8.786,-0.109
8.787,-0.094
8.788,-0.081
8.789,-0.068
8.790,-0.066
8.791,-0.069
8.792,-0.084
8.793,-0.096
8.794,-0.114
8.795,-0.126
8.796,-0.144
8.797,-0.164
8.798,-0.176
8.799,-0.193
8.800,-0.211
8.801,-0.210
8.802,-0.215
8.803,-0.195
8.804,-0.195
8.805,-0.191
8.806,-0.184
8.807,-0.176
8.808,-0.175
8.809,-0.175
8.810,-0.184
8.811,-0.194
8.812,-0.211
8.813,-0.233
8.814,-0.263
8.815,-0.284
8.816,-0.301
8.817,-0.312
8.818,-0.326
8.819,-0.331
8.820,-0.329
8.821,-0.324
8.822,-0.307
8.823,-0.296
8.824,-0.281
8.825,-0.271
8.826,-0.266
8.827,-0.264
8.828,-0.266
8.829,-0.273
8.830,-0.285
8.831,-0.301
8.832,-0.328
8.833,-0.344
8.834,-0.361
8.835,-0.376
8.836,-0.386
8.837,-0.386
8.838,-0.389
8.839,-0.390
8.840,-0.371
8.841,-0.362
8.842,-0.349
8.843,-0.341
8.844,-0.329
8.845,-0.321
8.846,-0.302
8.847,-0.290
8.848,-0.284
8.849,-0.284
8.850,-0.290
8.851,-0.301
8.852,-0.325
8.853,-0.341
8.854,-0.356
8.855,-0.371
8.856,-0.376
8.857,-0.376
8.858,-0.367
8.859,-0.350
8.860,-0.311
8.861,-0.305
8.862,-0.292
8.863,-0.290
8.864,-0.334
8.865,-0.304
8.866,-0.324
8.867,-0.346
8.868,-0.364
8.869,-0.369
8.870,-0.376
8.871,-0.384
8.872,-0.385
8.873,-0.385
8.874,-0.385
8.875,-0.374
8.876,-0.364
8.877,-0.352
8.878,-0.343
8.879,-0.329
8.880,-0.294
8.881,-0.286
8.882,-0.284
8.883,-0.281
8.884,-0.280
8.885,-0.290
8.886,-0.305
8.887,-0.314
8.888,-0.330
8.889,-0.336
8.890,-0.349
8.891,-0.357
8.892,-0.371
8.893,-0.386
8.894,-0.391
8.895,-0.401
8.896,-0.391
8.897,-0.385
8.898,-0.378
8.899,-0.371
8.900,-0.364
8.901,-0.362
8.902,-0.369
8.903,-0.376
8.904,-0.384
8.905,-0.391
8.906,-0.404
8.907,-0.407
8.908,-0.409
8.909,-0.409
8.910,-0.388
8.911,-0.361
8.912,-0.324
8.913,-0.270
8.914,-0.206
8.915,-0.131
8.916,-0.036
8.917,0.056
8.918,0.158
8.919,0.271
8.920,0.519
8.921,0.613
8.922,0.859
8.923,0.959
8.924,1.077
8.925,1.209
8.926,1.335
8.927,1.471
8.928,1.599
8.929,1.711
8.930,1.794
8.931,1.837
8.932,1.846
8.933,1.819
8.934,1.758
8.935,1.689
8.936,1.593
8.937,1.485
8.938,1.354
8.939,1.211
8.940,0.849
8.941,0.704
8.942,0.524
8.943,0.345
8.944,0.176
8.945,0.021
8.946,-0.125
8.947,-0.251
8.948,-0.350
8.949,-0.426
8.950,-0.494
8.951,-0.537
8.952,-0.576
8.953,-0.601
8.954,-0.606
8.955,-0.610
8.956,-0.611
8.957,-0.615
8.958,-0.625
8.959,-0.649
8.960,-0.664
8.961,-0.669
8.962,-0.677
8.963,-0.684
8.964,-0.689
8.965,-0.689
8.966,-0.688
8.967,-0.684
8.968,-0.675
8.969,-0.666
8.970,-0.650
8.971,-0.630
8.972,-0.613
8.973,-0.591
8.974,-0.569
8.975,-0.534
8.976,-0.505
8.977,-0.474
8.978,-0.456
8.979,-0.449
8.980,-0.450
8.981,-0.466
8.982,-0.481
8.983,-0.494
8.984,-0.504
8.985,-0.509
8.986,-0.512
8.987,-0.511
8.988,-0.509
8.989,-0.501
8.990,-0.492
8.991,-0.482
8.992,-0.466
8.993,-0.451
8.994,-0.443
8.995,-0.432
8.996,-0.429
8.997,-0.434
8.998,-0.441
8.999,-0.454
9.000,-0.482
9.001,-0.490
9.002,-0.494
9.003,-0.494
9.004,-0.501
9.005,-0.501
9.006,-0.494
9.007,-0.489
9.008,-0.472
9.009,-0.454
9.010,-0.446
9.011,-0.440
9.012,-0.434
9.013,-0.429
9.014,-0.421
9.015,-0.416
9.016,-0.416
9.017,-0.416
9.018,-0.424
9.019,-0.427
9.020,-0.449
9.021,-0.461
9.022,-0.471
9.023,-0.489
9.024,-0.494
9.025,-0.501
9.026,-0.494
9.027,-0.485
9.028,-0.470
9.029,-0.455
9.030,-0.436
9.031,-0.426
9.032,-0.414
9.033,-0.404
9.034,-0.391
9.035,-0.385
9.036,-0.389
9.037,-0.394
9.038,-0.411
9.039,-0.429
9.040,-0.454
9.041,-0.465
9.042,-0.469
9.043,-0.470
9.044,-0.469
9.045,-0.463
9.046,-0.448
9.047,-0.435
9.048,-0.416
9.049,-0.405
9.050,-0.393
9.051,-0.381
9.052,-0.374
9.053,-0.369
9.054,-0.367
9.055,-0.366
9.056,-0.371
9.057,-0.386
9.058,-0.403
9.059,-0.414
9.060,-0.443
9.061,-0.445
9.062,-0.449
9.063,-0.449
9.064,-0.441
9.065,-0.431
9.066,-0.415
9.067,-0.394
9.068,-0.379
9.069,-0.365
9.070,-0.356
9.071,-0.351
9.072,-0.351
9.073,-0.357
9.074,-0.367
9.075,-0.376
9.076,-0.389
9.077,-0.401
9.078,-0.404
9.079,-0.406
9.080,-0.410
9.081,-0.403
9.082,-0.390
9.083,-0.376
9.084,-0.369
9.085,-0.356
9.086,-0.346
9.087,-0.336
9.088,-0.326
9.089,-0.311
9.090,-0.299
9.091,-0.296
9.092,-0.296
9.093,-0.294
9.094,-0.310
9.095,-0.326
9.096,-0.344
9.097,-0.361
9.098,-0.376
9.099,-0.400
9.100,-0.421
9.101,-0.421
9.102,-0.406
9.103,-0.386
9.104,-0.369
9.105,-0.346
9.106,-0.314
9.107,-0.290
9.108,-0.269
9.109,-0.255
9.110,-0.246
9.111,-0.241
9.112,-0.229
9.113,-0.229
9.114,-0.242
9.115,-0.254
9.116,-0.270
9.117,-0.284
9.118,-0.295
9.119,-0.307
9.120,-0.326
9.121,-0.326
9.122,-0.311
9.123,-0.294
9.124,-0.276
9.125,-0.254
9.126,-0.233
9.127,-0.216
9.128,-0.201
9.129,-0.191
9.130,-0.188
9.131,-0.188
9.132,-0.194
9.133,-0.209
9.134,-0.225
9.135,-0.241
9.136,-0.261
9.137,-0.274
9.138,-0.289
9.139,-0.289
9.140,-0.273
9.141,-0.260
9.142,-0.219
9.143,-0.198
9.144,-0.203
9.145,-0.128
9.146,-0.147
9.147,-0.131
9.148,-0.130
9.149,-0.130
9.150,-0.139
9.151,-0.150
9.152,-0.168
9.153,-0.184
9.154,-0.199
9.155,-0.214
9.156,-0.225
9.157,-0.231
9.158,-0.229
9.159,-0.228
9.160,-0.200
9.161,-0.176
9.162,-0.171
9.163,-0.164
9.164,-0.161
9.165,-0.151
9.166,-0.150
9.167,-0.154
9.168,-0.164
9.169,-0.169
9.170,-0.181
9.171,-0.181
9.172,-0.186
9.173,-0.190
9.174,-0.204
9.175,-0.205
9.176,-0.209
9.177,-0.204
9.178,-0.198
9.179,-0.191
9.180,-0.176
9.181,-0.169
9.182,-0.151
9.183,-0.146
9.184,-0.136
9.185,-0.139
9.186,-0.138
9.187,-0.146
9.188,-0.163
9.189,-0.174
9.190,-0.191
9.191,-0.207
9.192,-0.225
9.193,-0.246
9.194,-0.261
9.195,-0.266
9.196,-0.273
9.197,-0.269
9.198,-0.261
9.199,-0.247
9.200,-0.216
9.201,-0.209
9.202,-0.204
9.203,-0.196
9.204,-0.196
9.205,-0.206
9.206,-0.221
9.207,-0.244
9.208,-0.264
9.209,-0.282
9.210,-0.301
9.211,-0.326
9.212,-0.346
9.213,-0.362
9.214,-0.371
9.215,-0.376
9.216,-0.375
9.217,-0.372
9.218,-0.359
9.219,-0.349
9.220,-0.326
9.221,-0.311
9.222,-0.304
9.223,-0.304
9.224,-0.304
9.225,-0.311
9.226,-0.326
9.227,-0.344
9.228,-0.362
9.229,-0.379
9.230,-0.404
9.231,-0.421
9.232,-0.431
9.233,-0.443
9.234,-0.445
9.235,-0.443
9.236,-0.435
9.237,-0.425
9.238,-0.410
9.239,-0.394
9.240,-0.371
9.241,-0.369
9.242,-0.369
9.243,-0.374
9.244,-0.389
9.245,-0.406
9.246,-0.429
9.247,-0.448
9.248,-0.465
9.249,-0.481
9.250,-0.491
9.251,-0.491
9.252,-0.491
9.253,-0.481
9.254,-0.464
9.255,-0.446
