Czas(s),EKG_Surowe(mV),PPG_Surowe(ADC)
0.000,-0.124,3132
0.001,-0.128,3132
0.002,-0.128,3132
0.003,-0.111,3124
0.004,-0.090,3124
0.005,-0.066,3124
0.006,-0.041,3124
0.007,-0.016,3124
0.008,0.011,3124
0.009,0.031,3124
0.010,0.049,3124
0.011,0.059,3124
0.012,0.066,3124
0.013,0.065,3125
0.014,0.049,3125
0.015,0.028,3125
0.016,-0.010,3125
0.017,-0.044,3125
0.018,-0.081,3125
0.019,-0.109,3125
0.020,-0.142,3125
0.021,-0.146,3125
0.022,-0.134,3136
0.023,-0.121,3136
0.024,-0.096,3136
0.025,-0.064,3136
0.026,-0.034,3136
0.027,-0.009,3136
0.028,0.011,3136
0.029,0.021,3136
0.030,0.019,3136
0.031,-0.003,3136
0.032,-0.024,3136
0.033,-0.055,3136
0.034,-0.095,3136
0.035,-0.134,3136
0.036,-0.182,3136
0.037,-0.224,3136
0.038,-0.261,3136
0.039,-0.294,3136
0.040,-0.324,3136
0.041,-0.321,3110
0.042,-0.304,3110
0.043,-0.284,3110
0.044,-0.249,3110
0.045,-0.214,3110
0.046,-0.182,3110
0.047,-0.154,3110
0.048,-0.131,3110
0.049,-0.121,3110
0.050,-0.121,3110
0.051,-0.126,3123
0.052,-0.138,3123
0.053,-0.168,3123
0.054,-0.195,3123
0.055,-0.234,3123
0.056,-0.276,3123
0.057,-0.321,3123
0.058,-0.351,3123
0.059,-0.371,3123
0.060,-0.400,3129
0.061,-0.356,3129
0.062,-0.341,3129
0.063,-0.311,3129
0.064,-0.286,3129
0.065,-0.265,3129
0.066,-0.249,3129
0.067,-0.231,3129
0.068,-0.194,3129
0.069,-0.241,3091
0.070,-0.254,3091
0.071,-0.271,3091
0.072,-0.297,3091
0.073,-0.331,3091
0.074,-0.362,3091
0.075,-0.385,3091
0.076,-0.406,3091
0.077,-0.411,3091
0.078,-0.410,3091
0.079,-0.404,3116
0.080,-0.349,3116
0.081,-0.306,3116
0.082,-0.274,3116
0.083,-0.246,3116
0.084,-0.216,3116
0.085,-0.204,3116
0.086,-0.203,3116
0.087,-0.205,3116
0.088,-0.215,3119
0.089,-0.245,3119
0.090,-0.274,3119
0.091,-0.314,3119
0.092,-0.361,3119
0.093,-0.401,3119
0.094,-0.431,3119
0.095,-0.446,3119
0.096,-0.454,3119
0.097,-0.449,3119
0.098,-0.440,3106
0.099,-0.416,3106
0.100,-0.400,3106
0.101,-0.289,3106
0.102,-0.255,3106
0.103,-0.231,3106
0.104,-0.231,3106
0.105,-0.242,3115
0.106,-0.261,3115
0.107,-0.280,3115
0.108,-0.304,3115
0.109,-0.334,3115
0.110,-0.364,3115
0.111,-0.389,3115
0.112,-0.409,3115
0.113,-0.417,3115
0.114,-0.411,3115
0.115,-0.401,3115
0.116,-0.374,3114
0.117,-0.341,3114
0.118,-0.296,3114
0.119,-0.261,3114
0.120,-0.198,3114
0.121,-0.188,3114
0.122,-0.189,3114
0.123,-0.201,3114
0.124,-0.224,3114
0.125,-0.260,3111
0.126,-0.290,3111
0.127,-0.326,3111
0.128,-0.357,3111
0.129,-0.386,3111
0.130,-0.415,3111
0.131,-0.431,3111
0.132,-0.431,3111
0.133,-0.426,3111
0.134,-0.414,3111
0.135,-0.386,3102
0.136,-0.354,3102
0.137,-0.310,3102
0.138,-0.269,3102
0.139,-0.229,3102
0.140,-0.184,3102
0.141,-0.175,3102
0.142,-0.181,3102
0.143,-0.198,3102
0.144,-0.216,3101
0.145,-0.250,3101
0.146,-0.281,3101
0.147,-0.309,3101
0.148,-0.349,3101
0.149,-0.370,3101
0.150,-0.386,3101
0.151,-0.400,3101
0.152,-0.389,3101
0.153,-0.374,3101
0.154,-0.351,3120
0.155,-0.323,3120
0.156,-0.286,3120
0.157,-0.250,3120
0.158,-0.211,3120
0.159,-0.181,3120
0.160,-0.144,3120
0.161,-0.166,3097
0.162,-0.226,3097
0.163,-0.264,3097
0.164,-0.297,3097
0.165,-0.334,3097
0.166,-0.366,3097
0.167,-0.386,3097
0.168,-0.394,3097
0.169,-0.391,3097
0.170,-0.381,3097
0.171,-0.356,3109
0.172,-0.331,3109
0.173,-0.294,3109
0.174,-0.264,3109
0.175,-0.229,3109
0.176,-0.206,3109
0.177,-0.186,3109
0.178,-0.174,3109
0.179,-0.174,3109
0.180,-0.205,3121
0.181,-0.249,3121
0.182,-0.269,3121
0.183,-0.289,3121
0.184,-0.306,3121
0.185,-0.324,3121
0.186,-0.334,3121
0.187,-0.331,3121
0.188,-0.320,3121
0.189,-0.349,3105
0.190,-0.273,3105
0.191,-0.234,3105
0.192,-0.206,3105
0.193,-0.184,3105
0.194,-0.168,3105
0.195,-0.151,3105
0.196,-0.151,3105
0.197,-0.164,3105
0.198,-0.176,3105
0.199,-0.196,3101
0.200,-0.261,3101
0.201,-0.286,3101
0.202,-0.311,3101
0.203,-0.338,3101
0.204,-0.354,3101
0.205,-0.364,3101
0.206,-0.361,3101
0.207,-0.351,3101
0.208,-0.330,3066
0.209,-0.291,3066
0.210,-0.261,3066
0.211,-0.224,3066
0.212,-0.189,3066
0.213,-0.166,3066
0.214,-0.144,3066
0.215,-0.129,3066
0.216,-0.129,3066
0.217,-0.133,3066
0.218,-0.151,3102
0.219,-0.184,3102
0.220,-0.275,3102
0.221,-0.326,3102
0.222,-0.315,3102
0.223,-0.343,3102
0.224,-0.351,3102
0.225,-0.354,3102
0.226,-0.341,3102
0.227,-0.320,3102
0.228,-0.286,3102
0.229,-0.256,3102
0.230,-0.221,3102
0.231,-0.194,3102
0.232,-0.166,3102
0.233,-0.149,3102
0.234,-0.141,3102
0.235,-0.146,3102
0.236,-0.169,3102
0.237,-0.191,3119
0.238,-0.217,3119
0.239,-0.254,3119
0.240,-0.324,3119
0.241,-0.344,3119
0.242,-0.361,3119
0.243,-0.366,3119
0.244,-0.366,3119
0.245,-0.355,3119
0.246,-0.331,3129
0.247,-0.301,3129
0.248,-0.266,3129
0.249,-0.226,3129
0.250,-0.191,3129
0.251,-0.166,3129
0.252,-0.146,3129
0.253,-0.130,3129
0.254,-0.142,3129
0.255,-0.154,3129
0.256,-0.181,3094
0.257,-0.210,3094
0.258,-0.245,3094
0.259,-0.282,3094
0.260,-0.347,3094
0.261,-0.364,3094
0.262,-0.374,3094
0.263,-0.366,3094
0.264,-0.345,3094
0.265,-0.321,3124
0.266,-0.284,3124
0.267,-0.253,3124
0.268,-0.223,3124
0.269,-0.196,3124
0.270,-0.182,3124
0.271,-0.175,3124
0.272,-0.174,3124
0.273,-0.175,3124
0.274,-0.189,3124
0.275,-0.209,3100
0.276,-0.234,3100
0.277,-0.271,3100
0.278,-0.296,3100
0.279,-0.333,3100
0.280,-0.366,3100
0.281,-0.366,3100
0.282,-0.361,3100
0.283,-0.366,3100
0.284,-0.324,3134
0.285,-0.292,3134
0.286,-0.269,3134
0.287,-0.244,3134
0.288,-0.214,3134
0.289,-0.194,3134
0.290,-0.184,3134
0.291,-0.174,3134
0.292,-0.171,3134
0.293,-0.180,3134
0.294,-0.193,3097
0.295,-0.211,3097
0.296,-0.241,3097
0.297,-0.266,3097
0.298,-0.291,3097
0.299,-0.323,3097
0.300,-0.344,3097
0.301,-0.336,3097
0.302,-0.330,3097
0.303,-0.306,3129
0.304,-0.284,3129
0.305,-0.255,3129
0.306,-0.221,3129
0.307,-0.189,3129
0.308,-0.166,3129
0.309,-0.146,3129
0.310,-0.136,3129
0.311,-0.141,3129
0.312,-0.150,3129
0.313,-0.181,3135
0.314,-0.211,3135
0.315,-0.245,3135
0.316,-0.281,3135
0.317,-0.306,3135
0.318,-0.330,3135
0.319,-0.343,3135
0.320,-0.349,3135
0.321,-0.335,3135
0.322,-0.314,3115
0.323,-0.286,3115
0.324,-0.251,3115
0.325,-0.209,3115
0.326,-0.174,3115
0.327,-0.146,3115
0.328,-0.129,3115
0.329,-0.116,3115
0.330,-0.116,3115
0.331,-0.126,3115
0.332,-0.138,3119
0.333,-0.169,3119
0.334,-0.196,3119
0.335,-0.244,3119
0.336,-0.273,3119
0.337,-0.306,3119
0.338,-0.330,3119
0.339,-0.344,3119
0.340,-0.336,3119
0.341,-0.324,3119
0.342,-0.296,3119
0.343,-0.268,3119
0.344,-0.231,3119
0.345,-0.196,3119
0.346,-0.166,3119
0.347,-0.141,3119
0.348,-0.128,3119
0.349,-0.129,3119
0.350,-0.136,3119
0.351,-0.165,3135
0.352,-0.201,3135
0.353,-0.233,3135
0.354,-0.274,3135
0.355,-0.307,3135
0.356,-0.335,3135
0.357,-0.350,3135
0.358,-0.356,3135
0.359,-0.349,3135
0.360,-0.294,3100
0.361,-0.225,3100
0.362,-0.186,3100
0.363,-0.145,3100
0.364,-0.110,3100
0.365,-0.090,3100
0.366,-0.085,3100
0.367,-0.089,3100
0.368,-0.109,3100
0.369,-0.141,3100
0.370,-0.186,3109
0.371,-0.233,3109
0.372,-0.282,3109
0.373,-0.311,3109
0.374,-0.347,3109
0.375,-0.370,3109
0.376,-0.376,3109
0.377,-0.374,3109
0.378,-0.357,3109
0.379,-0.331,3107
0.380,-0.254,3107
0.381,-0.221,3107
0.382,-0.181,3107
0.383,-0.145,3107
0.384,-0.124,3107
0.385,-0.106,3107
0.386,-0.107,3107
0.387,-0.116,3107
0.388,-0.134,3107
0.389,-0.165,3108
0.390,-0.196,3108
0.391,-0.228,3108
0.392,-0.264,3108
0.393,-0.289,3108
0.394,-0.304,3108
0.395,-0.311,3108
0.396,-0.311,3108
0.397,-0.299,3108
0.398,-0.286,3108
0.399,-0.263,3116
0.400,-0.191,3116
0.401,-0.141,3116
0.402,-0.116,3116
0.403,-0.101,3116
0.404,-0.094,3116
0.405,-0.106,3116
0.406,-0.121,3116
0.407,-0.149,3116
0.408,-0.190,3111
0.409,-0.204,3111
0.410,-0.246,3111
0.411,-0.268,3111
0.412,-0.286,3111
0.413,-0.295,3111
0.414,-0.296,3111
0.415,-0.286,3111
0.416,-0.265,3111
0.417,-0.242,3111
0.418,-0.206,3106
0.419,-0.169,3106
0.420,-0.089,3106
0.421,-0.058,3106
0.422,-0.037,3106
0.423,-0.029,3106
0.424,-0.029,3106
0.425,-0.045,3106
0.426,-0.069,3106
0.427,-0.096,3102
0.428,-0.129,3102
0.429,-0.169,3102
0.430,-0.209,3102
0.431,-0.241,3102
0.432,-0.268,3102
0.433,-0.285,3102
0.434,-0.290,3102
0.435,-0.289,3102
0.436,-0.269,3102
0.437,-0.241,3078
0.438,-0.203,3078
0.439,-0.164,3078
0.440,-0.070,3078
0.441,-0.006,3078
0.442,0.014,3078
0.443,0.014,3078
0.444,-0.004,3078
0.445,-0.021,3117
0.446,-0.051,3117
0.447,-0.089,3117
0.448,-0.122,3117
0.449,-0.161,3117
0.450,-0.186,3117
0.451,-0.204,3117
0.452,-0.210,3117
0.453,-0.207,3117
0.454,-0.196,3117
0.455,-0.172,3117
0.456,-0.144,3117
0.457,-0.113,3117
0.458,-0.087,3117
0.459,-0.062,3117
0.460,-0.051,3117
0.461,-0.085,3117
0.462,-0.109,3117
0.463,-0.144,3109
0.464,-0.182,3109
0.465,-0.217,3109
0.466,-0.254,3109
0.467,-0.284,3109
0.468,-0.306,3109
0.469,-0.321,3109
0.470,-0.324,3109
0.471,-0.311,3109
0.472,-0.294,3109
0.473,-0.274,3110
0.474,-0.246,3110
0.475,-0.214,3110
0.476,-0.186,3110
0.477,-0.166,3110
0.478,-0.149,3110
0.479,-0.139,3110
0.480,-0.168,3110
0.481,-0.182,3110
0.482,-0.204,3110
0.483,-0.234,3110
0.484,-0.271,3110
0.485,-0.301,3110
0.486,-0.326,3110
0.487,-0.344,3110
0.488,-0.350,3110
0.489,-0.350,3110
0.490,-0.338,3110
0.491,-0.312,3110
0.492,-0.289,3102
0.493,-0.249,3102
0.494,-0.214,3102
0.495,-0.188,3102
0.496,-0.166,3102
0.497,-0.149,3102
0.498,-0.144,3102
0.499,-0.149,3102
0.500,-0.201,3102
0.501,-0.215,3125
0.502,-0.286,3125
0.503,-0.320,3125
0.504,-0.344,3125
0.505,-0.361,3125
0.506,-0.365,3125
0.507,-0.354,3125
0.508,-0.340,3125
0.509,-0.311,3125
0.510,-0.284,3127
0.511,-0.255,3127
0.512,-0.224,3127
0.513,-0.190,3127
0.514,-0.169,3127
0.515,-0.141,3127
0.516,-0.134,3127
0.517,-0.133,3127
0.518,-0.144,3127
0.519,-0.164,3127
0.520,-0.214,3132
0.521,-0.269,3132
0.522,-0.290,3132
0.523,-0.307,3132
0.524,-0.326,3132
0.525,-0.334,3132
0.526,-0.329,3132
0.527,-0.312,3132
0.528,-0.289,3138
0.529,-0.261,3138
0.530,-0.230,3138
0.531,-0.241,3138
0.532,-0.174,3138
0.533,-0.154,3138
0.534,-0.146,3138
0.535,-0.146,3138
0.536,-0.150,3138
0.537,-0.170,3138
0.538,-0.191,3123
0.539,-0.221,3123
0.540,-0.304,3123
0.541,-0.324,3123
0.542,-0.345,3123
0.543,-0.354,3123
0.544,-0.355,3123
0.545,-0.349,3123
0.546,-0.329,3123
0.547,-0.306,3117
0.548,-0.284,3117
0.549,-0.254,3117
0.550,-0.228,3117
0.551,-0.209,3117
0.552,-0.201,3117
0.553,-0.198,3117
0.554,-0.209,3117
0.555,-0.230,3117
0.556,-0.266,3117
0.557,-0.304,3135
0.558,-0.346,3135
0.559,-0.390,3135
0.560,-0.449,3135
0.561,-0.445,3135
0.562,-0.449,3135
0.563,-0.414,3135
0.564,-0.369,3135
0.565,-0.304,3135
0.566,-0.224,3116
0.567,-0.129,3116
0.568,-0.024,3116
0.569,0.099,3116
0.570,0.220,3116
0.571,0.351,3116
0.572,0.470,3116
0.573,0.591,3116
0.574,0.708,3116
0.575,0.811,3116
0.576,0.911,3122
0.577,1.016,3122
0.578,1.129,3122
0.579,1.249,3122
0.580,1.576,3122
0.581,1.909,3122
0.582,2.076,3122
0.583,2.236,3122
0.584,2.364,3119
0.585,2.436,3119
0.586,2.464,3119
0.587,2.426,3119
0.588,2.345,3119
0.589,2.209,3119
0.590,2.041,3119
0.591,1.836,3119
0.592,1.616,3119
0.593,1.390,3119
0.594,1.154,3111
0.595,0.940,3111
0.596,0.726,3111
0.597,0.510,3111
0.598,0.299,3111
0.599,0.116,3111
0.600,-0.195,3111
0.601,-0.289,3111
0.602,-0.364,3111
0.603,-0.421,3115
0.604,-0.456,3115
0.605,-0.482,3115
0.606,-0.491,3115
0.607,-0.494,3115
0.608,-0.495,3115
0.609,-0.494,3115
0.610,-0.494,3115
0.611,-0.500,3115
0.612,-0.506,3115
0.613,-0.524,3115
0.614,-0.549,3115
0.615,-0.576,3115
0.616,-0.606,3115
0.617,-0.621,3115
0.618,-0.631,3115
0.619,-0.627,3115
0.620,-0.576,3115
0.621,-0.539,3115
0.622,-0.495,3115
0.623,-0.441,3110
0.624,-0.391,3110
0.625,-0.346,3110
0.626,-0.301,3110
0.627,-0.269,3110
0.628,-0.246,3110
0.629,-0.240,3110
0.630,-0.234,3110
0.631,-0.251,3110
0.632,-0.275,3110
0.633,-0.307,3106
0.634,-0.343,3106
0.635,-0.374,3106
0.636,-0.407,3106
0.637,-0.431,3106
0.638,-0.449,3106
0.639,-0.454,3106
0.640,-0.431,3106
0.641,-0.409,3108
0.642,-0.344,3108
0.643,-0.323,3108
0.644,-0.294,3108
0.645,-0.281,3108
0.646,-0.271,3108
0.647,-0.273,3108
0.648,-0.284,3108
0.649,-0.305,3108
0.650,-0.334,3108
0.651,-0.364,3138
0.652,-0.390,3138
0.653,-0.416,3138
0.654,-0.463,3138
0.655,-0.436,3138
0.656,-0.430,3138
0.657,-0.421,3138
0.658,-0.404,3138
0.659,-0.376,3138
0.660,-0.326,3112
0.661,-0.285,3112
0.662,-0.269,3112
0.663,-0.251,3112
0.664,-0.246,3112
0.665,-0.245,3112
0.666,-0.254,3112
0.667,-0.274,3112
0.668,-0.305,3112
0.669,-0.335,3121
0.670,-0.361,3121
0.671,-0.388,3121
0.672,-0.414,3121
0.673,-0.429,3121
0.674,-0.436,3121
0.675,-0.440,3121
0.676,-0.425,3121
0.677,-0.404,3121
0.678,-0.367,3121
0.679,-0.331,3087
0.680,-0.244,3087
0.681,-0.214,3087
0.682,-0.193,3087
0.683,-0.184,3087
0.684,-0.190,3087
0.685,-0.195,3087
0.686,-0.216,3087
0.687,-0.246,3087
0.688,-0.274,3087
0.689,-0.311,3087
0.690,-0.344,3087
0.691,-0.364,3087
0.692,-0.381,3087
0.693,-0.386,3087
0.694,-0.385,3087
0.695,-0.371,3087
0.696,-0.350,3087
0.697,-0.321,3087
0.698,-0.284,3109
0.699,-0.250,3109
0.700,-0.184,3109
0.701,-0.170,3109
0.702,-0.164,3109
0.703,-0.169,3109
0.704,-0.181,3109
0.705,-0.196,3109
0.706,-0.221,3109
0.707,-0.251,3103
0.708,-0.284,3103
0.709,-0.309,3103
0.710,-0.335,3103
0.711,-0.346,3103
0.712,-0.349,3103
0.713,-0.345,3103
0.714,-0.330,3103
0.715,-0.302,3103
0.716,-0.268,3103
0.717,-0.229,3098
0.718,-0.193,3098
0.719,-0.164,3098
0.720,-0.110,3098
0.721,-0.106,3098
0.722,-0.111,3098
0.723,-0.128,3098
0.724,-0.146,3098
0.725,-0.181,3098
0.726,-0.209,3122
0.727,-0.246,3122
0.728,-0.274,3122
0.729,-0.304,3122
0.730,-0.324,3122
0.731,-0.329,3122
0.732,-0.326,3122
0.733,-0.321,3122
0.734,-0.297,3122
0.735,-0.280,3122
0.736,-0.249,3119
0.737,-0.217,3119
0.738,-0.185,3119
0.739,-0.149,3119
0.740,-0.109,3119
0.741,-0.102,3119
0.742,-0.111,3119
0.743,-0.131,3119
0.744,-0.152,3119
0.745,-0.186,3123
0.746,-0.216,3123
0.747,-0.251,3123
0.748,-0.274,3123
0.749,-0.287,3123
0.750,-0.290,3123
0.751,-0.284,3123
0.752,-0.265,3123
0.753,-0.234,3123
0.754,-0.203,3123
0.755,-0.166,3122
0.756,-0.131,3122
0.757,-0.105,3122
0.758,-0.081,3122
0.759,-0.064,3122
0.760,-0.051,3122
0.761,-0.065,3122
0.762,-0.090,3122
0.763,-0.114,3122
0.764,-0.149,3131
0.765,-0.182,3131
0.766,-0.211,3131
0.767,-0.229,3131
0.768,-0.249,3131
0.769,-0.253,3131
0.770,-0.244,3131
0.771,-0.221,3131
0.772,-0.194,3131
0.773,-0.163,3131
0.774,-0.124,3120
0.775,-0.087,3120
0.776,-0.049,3120
0.777,-0.020,3120
0.778,0.011,3120
0.779,-0.030,3120
0.780,0.024,3120
0.781,0.009,3120
0.782,-0.024,3120
0.783,-0.046,3144
0.784,-0.081,3144
0.785,-0.109,3144
0.786,-0.131,3144
0.787,-0.154,3144
0.788,-0.175,3144
0.789,-0.176,3144
0.790,-0.169,3144
0.791,-0.139,3144
0.792,-0.106,3144
0.793,-0.061,3086
0.794,-0.021,3086
0.795,0.026,3086
0.796,0.054,3086
0.797,0.070,3086
0.798,0.086,3086
0.799,0.079,3086
0.800,0.039,3086
0.801,0.014,3086
0.802,-0.031,3125
0.803,-0.081,3125
0.804,-0.116,3125
0.805,-0.151,3125
0.806,-0.182,3125
0.807,-0.194,3125
0.808,-0.198,3125
0.809,-0.191,3125
0.810,-0.171,3125
0.811,-0.138,3125
0.812,-0.110,3111
0.813,-0.080,3111
0.814,-0.045,3111
0.815,-0.011,3111
0.816,0.015,3111
0.817,0.026,3111
0.818,0.030,3111
0.819,0.029,3111
0.820,-0.025,3111
0.821,-0.045,3116
0.822,-0.074,3116
0.823,-0.111,3116
0.824,-0.144,3116
0.825,-0.166,3116
0.826,-0.179,3116
0.827,-0.184,3116
0.828,-0.180,3116
0.829,-0.165,3116
0.830,-0.136,3116
0.831,-0.109,3121
0.832,-0.071,3121
0.833,-0.045,3121
0.834,-0.016,3121
0.835,0.009,3121
0.836,0.019,3121
0.837,0.014,3121
0.838,-0.007,3121
0.839,-0.034,3121
0.840,-0.120,3108
0.841,-0.206,3108
0.842,-0.249,3108
0.843,-0.276,3108
0.844,-0.294,3108
0.845,-0.297,3108
0.846,-0.291,3108
0.847,-0.276,3108
0.848,-0.251,3108
0.849,-0.224,3120
0.850,-0.194,3120
0.851,-0.170,3120
0.852,-0.141,3120
0.853,-0.131,3120
0.854,-0.125,3120
0.855,-0.129,3120
0.856,-0.141,3120
0.857,-0.166,3120
0.858,-0.190,3120
0.859,-0.221,3116
0.860,-0.296,3116
0.861,-0.329,3116
0.862,-0.364,3116
0.863,-0.386,3116
0.864,-0.404,3116
0.865,-0.406,3116
0.866,-0.390,3116
0.867,-0.370,3116
0.868,-0.346,3112
0.869,-0.306,3112
0.870,-0.265,3112
0.871,-0.224,3112
0.872,-0.194,3112
0.873,-0.181,3112
0.874,-0.171,3112
0.875,-0.176,3112
0.876,-0.196,3112
0.877,-0.231,3112
0.878,-0.281,3112
0.879,-0.331,3117
0.880,-0.431,3117
0.881,-0.454,3117
0.882,-0.471,3117
0.883,-0.472,3117
0.884,-0.461,3117
0.885,-0.441,3117
0.886,-0.407,3117
0.887,-0.371,3117
0.888,-0.336,3121
0.889,-0.302,3121
0.890,-0.275,3121
0.891,-0.253,3121
0.892,-0.231,3121
0.893,-0.225,3121
0.894,-0.230,3121
0.895,-0.250,3121
0.896,-0.276,3121
0.897,-0.307,3121
0.898,-0.346,3102
0.899,-0.374,3102
0.900,-0.429,3102
0.901,-0.436,3102
0.902,-0.431,3102
0.903,-0.386,3102
0.904,-0.388,3102
0.905,-0.354,3102
0.906,-0.321,3102
0.907,-0.281,3099
0.908,-0.249,3099
0.909,-0.216,3099
0.910,-0.198,3099
0.911,-0.189,3099
0.912,-0.189,3099
0.913,-0.204,3099
0.914,-0.224,3099
0.915,-0.254,3099
0.916,-0.281,3099
0.917,-0.309,3097
0.918,-0.344,3097
0.919,-0.369,3097
0.920,-0.405,3097
0.921,-0.404,3097
0.922,-0.403,3097
0.923,-0.390,3097
0.924,-0.364,3097
0.925,-0.330,3095
0.926,-0.266,3095
0.927,-0.241,3095
0.928,-0.216,3095
0.929,-0.209,3095
0.930,-0.211,3095
0.931,-0.216,3095
0.932,-0.231,3095
0.933,-0.254,3095
0.934,-0.296,3095
0.935,-0.307,3111
0.936,-0.343,3111
0.937,-0.362,3111
0.938,-0.378,3111
0.939,-0.390,3111
0.940,-0.371,3111
0.941,-0.346,3111
0.942,-0.324,3111
0.943,-0.287,3111
0.944,-0.256,3107
0.945,-0.224,3107
0.946,-0.196,3107
0.947,-0.184,3107
0.948,-0.174,3107
0.949,-0.174,3107
0.950,-0.184,3107
0.951,-0.194,3107
0.952,-0.221,3107
0.953,-0.254,3107
0.954,-0.286,3113
0.955,-0.312,3113
0.956,-0.341,3113
0.957,-0.361,3113
0.958,-0.374,3113
0.959,-0.388,3113
0.960,-0.374,3113
0.961,-0.355,3113
0.962,-0.328,3113
0.963,-0.289,3103
0.964,-0.260,3103
0.965,-0.230,3103
0.966,-0.209,3103
0.967,-0.193,3103
0.968,-0.189,3103
0.969,-0.195,3103
0.970,-0.209,3103
0.971,-0.226,3103
0.972,-0.254,3103
0.973,-0.284,3111
0.974,-0.310,3111
0.975,-0.336,3111
0.976,-0.356,3111
0.977,-0.364,3111
0.978,-0.359,3111
0.979,-0.341,3111
0.980,-0.269,3111
0.981,-0.231,3111
0.982,-0.195,3118
0.983,-0.164,3118
0.984,-0.134,3118
0.985,-0.122,3118
0.986,-0.115,3118
0.987,-0.124,3118
0.988,-0.138,3118
0.989,-0.169,3118
0.990,-0.194,3118
0.991,-0.226,3118
0.992,-0.255,3101
0.993,-0.281,3101
0.994,-0.305,3101
0.995,-0.325,3101
0.996,-0.336,3101
0.997,-0.340,3101
0.998,-0.331,3101
0.999,-0.310,3101
1.000,-0.249,3101
1.001,-0.212,3122
1.002,-0.184,3122
1.003,-0.154,3122
1.004,-0.134,3122
1.005,-0.126,3122
1.006,-0.129,3122
1.007,-0.134,3122
1.008,-0.146,3122
1.009,-0.171,3122
1.010,-0.194,3122
1.011,-0.221,3112
1.012,-0.255,3112
1.013,-0.280,3112
1.014,-0.294,3112
1.015,-0.305,3112
1.016,-0.309,3112
1.017,-0.299,3112
1.018,-0.286,3112
1.019,-0.266,3112
1.020,-0.206,3126
1.021,-0.151,3126
1.022,-0.138,3126
1.023,-0.131,3126
1.024,-0.134,3126
1.025,-0.142,3126
1.026,-0.169,3126
1.027,-0.196,3126
1.028,-0.242,3126
1.029,-0.266,3117
1.030,-0.300,3117
1.031,-0.326,3117
1.032,-0.349,3117
1.033,-0.354,3117
1.034,-0.356,3117
1.035,-0.352,3117
1.036,-0.334,3117
1.037,-0.305,3117
1.038,-0.274,3117
1.039,-0.234,3129
1.040,-0.184,3129
1.041,-0.164,3129
1.042,-0.147,3129
1.043,-0.147,3129
1.044,-0.164,3129
1.045,-0.176,3129
1.046,-0.203,3129
1.047,-0.234,3129
1.048,-0.270,3133
1.049,-0.306,3133
1.050,-0.336,3133
1.051,-0.361,3133
1.052,-0.365,3133
1.053,-0.364,3133
1.054,-0.351,3133
1.055,-0.324,3133
1.056,-0.297,3133
1.057,-0.266,3133
1.058,-0.234,3139
1.059,-0.205,3139
1.060,-0.146,3139
1.061,-0.136,3139
1.062,-0.130,3139
1.063,-0.135,3139
1.064,-0.151,3139
1.065,-0.176,3139
1.066,-0.211,3139
1.067,-0.245,3112
1.068,-0.281,3112
1.069,-0.309,3112
1.070,-0.334,3112
1.071,-0.343,3112
1.072,-0.349,3112
1.073,-0.333,3112
1.074,-0.310,3112
1.075,-0.284,3112
1.076,-0.250,3112
1.077,-0.210,3139
1.078,-0.181,3139
1.079,-0.160,3139
1.080,-0.144,3139
1.081,-0.151,3139
1.082,-0.175,3139
1.083,-0.206,3139
1.084,-0.249,3139
1.085,-0.289,3139
1.086,-0.310,3118
1.087,-0.346,3118
1.088,-0.364,3118
1.089,-0.374,3118
1.090,-0.372,3118
1.091,-0.365,3118
1.092,-0.345,3118
1.093,-0.314,3118
1.094,-0.286,3118
1.095,-0.244,3118
1.096,-0.205,3126
1.097,-0.174,3126
1.098,-0.151,3126
1.099,-0.144,3126
1.100,-0.142,3126
1.101,-0.161,3126
1.102,-0.181,3126
1.103,-0.204,3126
1.104,-0.231,3126
1.105,-0.269,3112
1.106,-0.302,3112
1.107,-0.331,3112
1.108,-0.351,3112
1.109,-0.365,3112
1.110,-0.364,3112
1.111,-0.354,3112
1.112,-0.334,3112
1.113,-0.302,3112
1.114,-0.269,3112
1.115,-0.241,3107
1.116,-0.206,3107
1.117,-0.181,3107
1.118,-0.163,3107
1.119,-0.144,3107
1.120,-0.141,3107
1.121,-0.154,3107
1.122,-0.181,3107
1.123,-0.211,3107
1.124,-0.246,3102
1.125,-0.284,3102
1.126,-0.309,3102
1.127,-0.333,3102
1.128,-0.346,3102
1.129,-0.345,3102
1.130,-0.331,3102
1.131,-0.309,3102
1.132,-0.276,3102
1.133,-0.246,3102
1.134,-0.206,3102
1.135,-0.172,3099
1.136,-0.145,3099
1.137,-0.129,3099
1.138,-0.125,3099
1.139,-0.131,3099
1.140,-0.174,3099
1.141,-0.204,3099
1.142,-0.231,3099
1.143,-0.269,3099
1.144,-0.302,3118
1.145,-0.331,3118
1.146,-0.354,3118
1.147,-0.366,3118
1.148,-0.364,3118
1.149,-0.350,3118
1.150,-0.329,3118
1.151,-0.291,3118
1.152,-0.250,3118
1.153,-0.201,3112
1.154,-0.166,3112
1.155,-0.122,3112
1.156,-0.092,3112
1.157,-0.081,3112
1.158,-0.085,3112
1.159,-0.101,3112
1.160,-0.165,3112
1.161,-0.193,3112
1.162,-0.234,3112
1.163,-0.274,3106
1.164,-0.310,3106
1.165,-0.347,3106
1.166,-0.356,3106
1.167,-0.336,3106
1.168,-0.321,3106
1.169,-0.289,3106
1.170,-0.251,3106
1.171,-0.212,3106
1.172,-0.176,3099
1.173,-0.144,3099
1.174,-0.128,3099
1.175,-0.111,3099
1.176,-0.116,3099
1.177,-0.128,3099
1.178,-0.149,3099
1.179,-0.194,3099
1.180,-0.256,3097
1.181,-0.321,3097
1.182,-0.346,3097
1.183,-0.354,3097
1.184,-0.351,3097
1.185,-0.341,3097
1.186,-0.314,3097
1.187,-0.286,3097
1.188,-0.250,3097
1.189,-0.210,3097
1.190,-0.169,3111
1.191,-0.131,3111
1.192,-0.104,3111
1.193,-0.094,3111
1.194,-0.098,3111
1.195,-0.114,3111
1.196,-0.136,3111
1.197,-0.170,3111
1.198,-0.201,3111
1.199,-0.244,3111
1.200,-0.296,3104
1.201,-0.311,3104
1.202,-0.306,3104
1.203,-0.286,3104
1.204,-0.256,3104
1.205,-0.223,3104
1.206,-0.181,3104
1.207,-0.142,3104
1.208,-0.104,3103
1.209,-0.069,3103
1.210,-0.045,3103
1.211,-0.031,3103
1.212,-0.029,3103
1.213,-0.041,3103
1.214,-0.061,3103
1.215,-0.094,3103
1.216,-0.125,3103
1.217,-0.161,3103
1.218,-0.191,3091
1.219,-0.225,3091
1.220,-0.256,3091
1.221,-0.253,3091
1.222,-0.246,3091
1.223,-0.228,3091
1.224,-0.205,3091
1.225,-0.176,3091
1.226,-0.142,3091
1.227,-0.106,3118
1.228,-0.071,3118
1.229,-0.049,3118
1.230,-0.029,3118
1.231,-0.016,3118
1.232,-0.016,3118
1.233,-0.029,3118
1.234,-0.045,3118
1.235,-0.069,3118
1.236,-0.094,3118
1.237,-0.115,3098
1.238,-0.130,3098
1.239,-0.141,3098
1.240,-0.135,3098
1.241,-0.125,3098
1.242,-0.104,3098
1.243,-0.087,3098
1.244,-0.066,3098
1.245,-0.054,3098
1.246,-0.035,3114
1.247,-0.036,3114
1.248,-0.036,3114
1.249,-0.048,3114
1.250,-0.064,3114
1.251,-0.089,3114
1.252,-0.115,3114
1.253,-0.151,3114
1.254,-0.189,3114
1.255,-0.221,3126
1.256,-0.259,3126
1.257,-0.282,3126
1.258,-0.297,3126
1.259,-0.305,3126
1.260,-0.285,3126
1.261,-0.264,3126
1.262,-0.241,3126
1.263,-0.204,3126
1.264,-0.172,3128
1.265,-0.145,3128
1.266,-0.131,3128
1.267,-0.122,3128
1.268,-0.129,3128
1.269,-0.146,3128
1.270,-0.174,3128
1.271,-0.206,3128
1.272,-0.231,3128
1.273,-0.264,3128
1.274,-0.286,3126
1.275,-0.306,3126
1.276,-0.324,3126
1.277,-0.334,3126
1.278,-0.331,3126
1.279,-0.323,3126
1.280,-0.261,3126
1.281,-0.229,3126
1.282,-0.191,3126
1.283,-0.164,3131
1.284,-0.130,3131
1.285,-0.107,3131
1.286,-0.092,3131
1.287,-0.090,3131
1.288,-0.106,3131
1.289,-0.131,3131
1.290,-0.168,3131
1.291,-0.206,3131
1.292,-0.246,3131
1.293,-0.284,3134
1.294,-0.324,3134
1.295,-0.351,3134
1.296,-0.369,3134
1.297,-0.371,3134
1.298,-0.365,3134
1.299,-0.345,3134
1.300,-0.266,3134
1.301,-0.229,3134
1.302,-0.188,3116
1.303,-0.147,3116
1.304,-0.121,3116
1.305,-0.101,3116
1.306,-0.090,3116
1.307,-0.096,3116
1.308,-0.121,3116
1.309,-0.146,3116
1.310,-0.188,3116
1.311,-0.224,3116
1.312,-0.264,3118
1.313,-0.294,3118
1.314,-0.326,3118
1.315,-0.344,3118
1.316,-0.346,3118
1.317,-0.335,3118
1.318,-0.311,3118
1.319,-0.284,3118
1.320,-0.196,3118
1.321,-0.164,3142
1.322,-0.115,3142
1.323,-0.110,3142
1.324,-0.113,3142
1.325,-0.130,3142
1.326,-0.166,3142
1.327,-0.196,3142
1.328,-0.230,3142
1.329,-0.269,3142
1.330,-0.295,3130
1.331,-0.326,3130
1.332,-0.341,3130
1.333,-0.350,3130
1.334,-0.346,3130
1.335,-0.333,3130
1.336,-0.304,3130
1.337,-0.273,3130
1.338,-0.263,3130
1.339,-0.206,3130
1.340,-0.164,3089
1.341,-0.166,3089
1.342,-0.180,3089
1.343,-0.204,3089
1.344,-0.241,3089
1.345,-0.276,3089
1.346,-0.321,3089
1.347,-0.354,3089
1.348,-0.389,3089
1.349,-0.416,3089
1.350,-0.424,3089
1.351,-0.415,3089
1.352,-0.391,3089
1.353,-0.356,3089
1.354,-0.311,3089
1.355,-0.251,3089
1.356,-0.182,3089
1.357,-0.104,3089
1.358,-0.010,3110
1.359,0.091,3110
1.360,0.311,3110
1.361,0.396,3110
1.362,0.499,3110
1.363,0.604,3110
1.364,0.706,3110
1.365,0.811,3110
1.366,0.924,3110
1.367,1.050,3108
1.368,1.171,3108
1.369,1.319,3108
1.370,1.486,3108
1.371,1.656,3108
1.372,1.866,3108
1.373,2.079,3108
1.374,2.286,3108
1.375,2.454,3108
1.376,2.559,3108
1.377,2.559,3111
1.378,2.559,3111
1.379,2.549,3111
1.380,2.266,3111
1.381,2.095,3111
1.382,1.854,3111
1.383,1.595,3111
1.384,1.330,3111
1.385,1.069,3111
1.386,0.814,3111
1.387,0.573,3124
1.388,0.352,3124
1.389,0.169,3124
1.390,0.014,3124
1.391,-0.114,3124
1.392,-0.211,3124
1.393,-0.281,3124
1.394,-0.329,3124
1.395,-0.350,3124
1.396,-0.367,3124
1.397,-0.381,3075
1.398,-0.389,3075
1.399,-0.406,3075
1.400,-0.448,3075
1.401,-0.469,3075
1.402,-0.501,3075
1.403,-0.531,3075
1.404,-0.560,3075
1.405,-0.584,3075
1.406,-0.601,3109
1.407,-0.608,3109
1.408,-0.603,3109
1.409,-0.586,3109
1.410,-0.561,3109
1.411,-0.521,3109
1.412,-0.472,3109
1.413,-0.426,3109
1.414,-0.372,3109
1.415,-0.331,3109
1.416,-0.294,3098
1.417,-0.273,3098
1.418,-0.261,3098
1.419,-0.264,3098
1.420,-0.296,3098
1.421,-0.326,3098
1.422,-0.361,3098
1.423,-0.406,3098
1.424,-0.444,3098
1.425,-0.484,3095
1.426,-0.504,3095
1.427,-0.521,3095
1.428,-0.520,3095
1.429,-0.511,3095
1.430,-0.486,3095
1.431,-0.449,3095
1.432,-0.416,3095
1.433,-0.374,3095
1.434,-0.344,3095
1.435,-0.311,3096
1.436,-0.291,3096
1.437,-0.275,3096
1.438,-0.271,3096
1.439,-0.274,3096
1.440,-0.321,3096
1.441,-0.341,3096
1.442,-0.375,3096
1.443,-0.401,3096
1.444,-0.416,3104
1.445,-0.434,3104
1.446,-0.441,3104
1.447,-0.441,3104
1.448,-0.429,3104
1.449,-0.409,3104
1.450,-0.374,3104
1.451,-0.336,3104
1.452,-0.297,3104
1.453,-0.268,3104
1.454,-0.244,3095
1.455,-0.225,3095
1.456,-0.216,3095
1.457,-0.221,3095
1.458,-0.234,3095
1.459,-0.258,3095
1.460,-0.330,3095
1.461,-0.345,3095
1.462,-0.384,3095
1.463,-0.411,3100
1.464,-0.431,3100
1.465,-0.441,3100
1.466,-0.441,3100
1.467,-0.426,3100
1.468,-0.404,3100
1.469,-0.369,3100
1.470,-0.335,3100
1.471,-0.297,3100
1.472,-0.265,3100
1.473,-0.231,3106
1.474,-0.210,3106
1.475,-0.196,3106
1.476,-0.193,3106
1.477,-0.206,3106
1.478,-0.223,3106
1.479,-0.254,3106
1.480,-0.330,3106
1.481,-0.355,3106
1.482,-0.384,3099
1.483,-0.406,3099
1.484,-0.411,3099
1.485,-0.411,3099
1.486,-0.401,3099
1.487,-0.372,3099
1.488,-0.345,3099
1.489,-0.306,3099
1.490,-0.271,3099
1.491,-0.244,3099
1.492,-0.211,3108
1.493,-0.190,3108
1.494,-0.182,3108
1.495,-0.184,3108
1.496,-0.194,3108
1.497,-0.211,3108
1.498,-0.241,3108
1.499,-0.265,3108
1.500,-0.329,3106
1.501,-0.361,3106
1.502,-0.366,3106
1.503,-0.364,3106
1.504,-0.354,3106
1.505,-0.335,3106
1.506,-0.311,3106
1.507,-0.285,3106
1.508,-0.255,3106
1.509,-0.219,3106
1.510,-0.189,3112
1.511,-0.166,3112
1.512,-0.149,3112
1.513,-0.144,3112
1.514,-0.150,3112
1.515,-0.166,3112
1.516,-0.193,3112
1.517,-0.216,3112
1.518,-0.249,3112
1.519,-0.275,3112
1.520,-0.324,3120
1.521,-0.321,3120
1.522,-0.299,3120
1.523,-0.273,3120
1.524,-0.244,3120
1.525,-0.209,3120
1.526,-0.181,3120
1.527,-0.149,3120
1.528,-0.126,3112
1.529,-0.111,3112
1.530,-0.105,3112
1.531,-0.105,3112
1.532,-0.115,3112
1.533,-0.130,3112
1.534,-0.149,3112
1.535,-0.184,3112
1.536,-0.221,3112
1.537,-0.254,3112
1.538,-0.286,3132
1.539,-0.307,3132
1.540,-0.309,3132
1.541,-0.291,3132
1.542,-0.271,3132
1.543,-0.246,3132
1.544,-0.206,3132
1.545,-0.168,3132
1.546,-0.129,3132
1.547,-0.091,3124
1.548,-0.066,3124
1.549,-0.049,3124
1.550,-0.041,3124
1.551,-0.044,3124
1.552,-0.061,3124
1.553,-0.086,3124
1.554,-0.114,3124
1.555,-0.145,3124
1.556,-0.180,3124
1.557,-0.201,3132
1.558,-0.226,3132
1.559,-0.244,3132
1.560,-0.225,3132
1.561,-0.209,3132
1.562,-0.176,3132
1.563,-0.144,3132
1.564,-0.107,3132
1.565,-0.066,3132
1.566,-0.031,3122
1.567,-0.009,3122
1.568,0.019,3122
1.569,0.024,3122
1.570,0.022,3122
1.571,0.006,3122
1.572,-0.026,3122
1.573,-0.056,3122
1.574,-0.094,3122
1.575,-0.134,3122
1.576,-0.170,3124
1.577,-0.194,3124
1.578,-0.204,3124
1.579,-0.205,3124
1.580,-0.166,3124
1.581,-0.136,3124
1.582,-0.101,3124
1.583,-0.059,3124
1.584,-0.021,3124
1.585,0.007,3125
1.586,0.039,3125
1.587,0.044,3125
1.588,0.044,3125
1.589,0.029,3125
1.590,-0.003,3125
1.591,-0.031,3125
1.592,-0.065,3125
1.593,-0.101,3125
1.594,-0.129,3125
1.595,-0.161,3100
1.596,-0.176,3100
1.597,-0.189,3100
1.598,-0.189,3100
1.599,-0.181,3100
1.600,-0.122,3100
1.601,-0.101,3100
1.602,-0.061,3100
1.603,-0.028,3100
1.604,0.009,3124
1.605,0.029,3124
1.606,0.037,3124
1.607,0.039,3124
1.608,0.030,3124
1.609,0.011,3124
1.610,-0.026,3124
1.611,-0.056,3124
1.612,-0.098,3124
1.613,-0.134,3124
1.614,-0.165,3110
1.615,-0.186,3110
1.616,-0.195,3110
1.617,-0.196,3110
1.618,-0.188,3110
1.619,-0.166,3110
1.620,-0.101,3110
1.621,-0.070,3110
1.622,-0.043,3110
1.623,-0.021,3122
1.624,-0.006,3122
1.625,-0.001,3122
1.626,-0.009,3122
1.627,-0.026,3122
1.628,-0.054,3122
1.629,-0.091,3122
1.630,-0.129,3122
1.631,-0.172,3122
1.632,-0.210,3122
1.633,-0.249,3103
1.634,-0.274,3103
1.635,-0.291,3103
1.636,-0.297,3103
1.637,-0.296,3103
1.638,-0.284,3103
1.639,-0.254,3103
1.640,-0.204,3103
1.641,-0.185,3103
1.642,-0.163,3103
1.643,-0.142,3106
1.644,-0.135,3106
1.645,-0.142,3106
1.646,-0.161,3106
1.647,-0.188,3106
1.648,-0.226,3106
1.649,-0.266,3106
1.650,-0.309,3106
1.651,-0.346,3106
1.652,-0.376,3106
1.653,-0.403,3112
1.654,-0.412,3112
1.655,-0.414,3112
1.656,-0.394,3112
1.657,-0.372,3112
1.658,-0.347,3112
1.659,-0.320,3112
1.660,-0.247,3112
1.661,-0.229,3112
1.662,-0.214,3109
1.663,-0.210,3109
1.664,-0.216,3109
1.665,-0.241,3109
1.666,-0.265,3109
1.667,-0.296,3109
1.668,-0.340,3109
1.669,-0.375,3109
1.670,-0.411,3109
1.671,-0.436,3109
1.672,-0.454,3125
1.673,-0.466,3125
1.674,-0.464,3125
1.675,-0.453,3125
1.676,-0.432,3125
1.677,-0.411,3125
1.678,-0.381,3125
1.679,-0.351,3125
1.680,-0.286,3111
1.681,-0.256,3111
1.682,-0.251,3111
1.683,-0.261,3111
1.684,-0.281,3111
1.685,-0.306,3111
1.686,-0.341,3111
1.687,-0.370,3111
1.688,-0.404,3111
1.689,-0.427,3111
1.690,-0.449,3129
1.691,-0.453,3129
1.692,-0.450,3129
1.693,-0.436,3129
1.694,-0.415,3129
1.695,-0.386,3129
1.696,-0.354,3129
1.697,-0.328,3129
1.698,-0.296,3129
1.699,-0.273,3129
1.700,-0.233,3098
1.701,-0.261,3098
1.702,-0.273,3098
1.703,-0.301,3098
1.704,-0.334,3098
1.705,-0.366,3098
1.706,-0.405,3098
1.707,-0.431,3098
1.708,-0.455,3097
1.709,-0.469,3097
1.710,-0.481,3097
1.711,-0.471,3097
1.712,-0.456,3097
1.713,-0.434,3097
1.714,-0.401,3097
1.715,-0.366,3097
1.716,-0.331,3097
1.717,-0.294,3097
1.718,-0.269,3099
1.719,-0.249,3099
1.720,-0.245,3099
1.721,-0.254,3099
1.722,-0.276,3099
1.723,-0.306,3099
1.724,-0.344,3099
1.725,-0.376,3099
1.726,-0.407,3099
1.727,-0.426,3112
1.728,-0.434,3112
1.729,-0.434,3112
1.730,-0.424,3112
1.731,-0.406,3112
1.732,-0.376,3112
1.733,-0.346,3112
1.734,-0.310,3112
1.735,-0.276,3112
1.736,-0.251,3112
1.737,-0.230,3112
1.738,-0.216,3112
1.739,-0.211,3112
1.740,-0.287,3112
1.741,-0.270,3112
1.742,-0.301,3112
1.743,-0.334,3112
1.744,-0.369,3112
1.745,-0.401,3112
1.746,-0.421,3112
1.747,-0.426,3112
1.748,-0.426,3112
1.749,-0.416,3112
1.750,-0.389,3112
1.751,-0.356,3112
1.752,-0.321,3112
1.753,-0.275,3112
1.754,-0.234,3112
1.755,-0.198,3112
1.756,-0.176,3123
1.757,-0.164,3123
1.758,-0.163,3123
1.759,-0.172,3123
1.760,-0.231,3123
1.761,-0.266,3123
1.762,-0.306,3123
1.763,-0.345,3123
1.764,-0.370,3123
1.765,-0.390,3130
1.766,-0.406,3130
1.767,-0.404,3130
1.768,-0.389,3130
1.769,-0.369,3130
1.770,-0.341,3130
1.771,-0.309,3130
1.772,-0.274,3130
1.773,-0.244,3130
1.774,-0.210,3130
1.775,-0.191,3120
1.776,-0.182,3120
1.777,-0.186,3120
1.778,-0.194,3120
1.779,-0.214,3120
1.780,-0.269,3120
1.781,-0.287,3120
1.782,-0.309,3120
1.783,-0.330,3120
1.784,-0.341,3122
1.785,-0.344,3122
1.786,-0.336,3122
1.787,-0.325,3122
1.788,-0.304,3122
1.789,-0.276,3122
1.790,-0.251,3122
1.791,-0.224,3122
1.792,-0.204,3122
1.793,-0.182,3122
1.794,-0.172,3138
1.795,-0.169,3138
1.796,-0.172,3138
1.797,-0.188,3138
1.798,-0.209,3138
1.799,-0.234,3138
1.800,-0.305,3138
1.801,-0.351,3138
1.802,-0.369,3131
1.803,-0.370,3131
1.804,-0.366,3131
1.805,-0.354,3131
1.806,-0.336,3131
1.807,-0.306,3131
1.808,-0.280,3131
1.809,-0.249,3131
1.810,-0.210,3131
1.811,-0.181,3131
1.812,-0.151,3113
1.813,-0.141,3113
1.814,-0.136,3113
1.815,-0.146,3113
1.816,-0.169,3113
1.817,-0.196,3113
1.818,-0.229,3113
1.819,-0.264,3113
1.820,-0.335,3113
1.821,-0.351,3117
1.822,-0.364,3117
1.823,-0.366,3117
1.824,-0.354,3117
1.825,-0.335,3117
1.826,-0.306,3117
1.827,-0.273,3117
1.828,-0.234,3117
1.829,-0.203,3117
1.830,-0.175,3117
1.831,-0.161,3115
1.832,-0.154,3115
1.833,-0.166,3115
1.834,-0.181,3115
1.835,-0.201,3115
1.836,-0.229,3115
1.837,-0.264,3115
1.838,-0.295,3115
1.839,-0.326,3115
1.840,-0.364,3117
1.841,-0.352,3117
1.842,-0.336,3117
1.843,-0.311,3117
1.844,-0.289,3117
1.845,-0.264,3117
1.846,-0.234,3117
1.847,-0.211,3117
1.848,-0.194,3117
1.849,-0.185,3109
1.850,-0.185,3109
1.851,-0.189,3109
1.852,-0.209,3109
1.853,-0.231,3109
1.854,-0.269,3109
1.855,-0.305,3109
1.856,-0.349,3109
1.857,-0.376,3109
1.858,-0.409,3109
1.859,-0.426,3134
1.860,-0.427,3134
1.861,-0.414,3134
1.862,-0.386,3134
1.863,-0.350,3134
1.864,-0.268,3134
1.865,-0.269,3134
1.866,-0.229,3134
1.867,-0.196,3134
1.868,-0.181,3111
1.869,-0.168,3111
1.870,-0.166,3111
1.871,-0.174,3111
1.872,-0.194,3111
1.873,-0.215,3111
1.874,-0.253,3111
1.875,-0.285,3111
1.876,-0.314,3111
1.877,-0.341,3111
1.878,-0.355,3102
1.879,-0.364,3102
1.880,-0.351,3102
1.881,-0.341,3102
1.882,-0.311,3102
1.883,-0.285,3102
1.884,-0.253,3102
1.885,-0.225,3102
1.886,-0.198,3102
1.887,-0.182,3105
1.888,-0.175,3105
1.889,-0.171,3105
1.890,-0.182,3105
1.891,-0.198,3105
1.892,-0.216,3105
1.893,-0.250,3105
1.894,-0.276,3105
1.895,-0.306,3105
1.896,-0.336,3105
1.897,-0.356,3117
1.898,-0.376,3117
1.899,-0.384,3117
1.900,-0.347,3117
1.901,-0.307,3117
1.902,-0.274,3117
1.903,-0.241,3117
1.904,-0.191,3117
1.905,-0.154,3117
1.906,-0.129,3117
1.907,-0.115,3123
1.908,-0.110,3123
1.909,-0.115,3123
1.910,-0.126,3123
1.911,-0.149,3123
1.912,-0.191,3123
1.913,-0.241,3123
1.914,-0.289,3123
1.915,-0.331,3123
1.916,-0.369,3123
1.917,-0.391,3095
1.918,-0.406,3095
1.919,-0.403,3095
1.920,-0.351,3095
1.921,-0.314,3095
1.922,-0.284,3095
1.923,-0.245,3095
1.924,-0.205,3095
1.925,-0.177,3095
1.926,-0.161,3119
1.927,-0.147,3119
1.928,-0.154,3119
1.929,-0.174,3119
1.930,-0.196,3119
1.931,-0.225,3119
1.932,-0.261,3119
1.933,-0.290,3119
1.934,-0.314,3119
1.935,-0.336,3119
1.936,-0.341,3100
1.937,-0.346,3100
1.938,-0.334,3100
1.939,-0.312,3100
1.940,-0.249,3100
1.941,-0.219,3100
1.942,-0.186,3100
1.943,-0.161,3100
1.944,-0.136,3100
1.945,-0.126,3106
1.946,-0.131,3106
1.947,-0.144,3106
1.948,-0.174,3106
1.949,-0.205,3106
1.950,-0.246,3106
1.951,-0.284,3106
1.952,-0.321,3106
1.953,-0.349,3106
1.954,-0.365,3106
1.955,-0.375,3054
1.956,-0.369,3054
1.957,-0.351,3054
1.958,-0.329,3054
1.959,-0.290,3054
1.960,-0.207,3054
1.961,-0.180,3054
1.962,-0.146,3054
1.963,-0.124,3054
1.964,-0.110,3094
1.965,-0.115,3094
1.966,-0.134,3094
1.967,-0.160,3094
1.968,-0.194,3094
1.969,-0.229,3094
1.970,-0.266,3094
1.971,-0.296,3094
1.972,-0.324,3094
1.973,-0.340,3066
1.974,-0.345,3066
1.975,-0.334,3066
1.976,-0.311,3066
1.977,-0.281,3066
1.978,-0.244,3066
1.979,-0.203,3066
1.980,-0.138,3066
1.981,-0.109,3101
1.982,-0.121,3101
1.983,-0.133,3101
1.984,-0.164,3101
1.985,-0.195,3101
1.986,-0.230,3101
1.987,-0.269,3101
1.988,-0.274,3101
1.989,-0.325,3101
1.990,-0.336,3101
1.991,-0.345,3130
1.992,-0.341,3130
1.993,-0.329,3130
1.994,-0.304,3130
1.995,-0.270,3130
1.996,-0.231,3130
1.997,-0.194,3130
1.998,-0.166,3130
1.999,-0.131,3130
2.000,-0.091,3106
2.001,-0.101,3106
2.002,-0.116,3106
2.003,-0.136,3106
2.004,-0.166,3106
2.005,-0.189,3106
2.006,-0.211,3106
2.007,-0.228,3106
2.008,-0.242,3106
2.009,-0.247,3113
2.010,-0.245,3113
2.011,-0.229,3113
2.012,-0.210,3113
2.013,-0.189,3113
2.014,-0.164,3113
2.015,-0.126,3113
2.016,-0.096,3113
2.017,-0.069,3113
2.018,-0.050,3113
2.019,-0.034,3104
2.020,-0.061,3104
2.021,-0.081,3104
2.022,-0.121,3104
2.023,-0.149,3104
2.024,-0.193,3104
2.025,-0.229,3104
2.026,-0.256,3104
2.027,-0.276,3104
2.028,-0.284,3126
2.029,-0.276,3126
2.030,-0.265,3126
2.031,-0.234,3126
2.032,-0.196,3126
2.033,-0.166,3126
2.034,-0.124,3126
2.035,-0.089,3126
2.036,-0.049,3126
2.037,-0.026,3126
2.038,-0.007,3129
2.039,0.010,3129
2.040,-0.021,3129
2.041,-0.035,3129
2.042,-0.066,3129
2.043,-0.094,3129
2.044,-0.125,3129
2.045,-0.150,3129
2.046,-0.174,3129
2.047,-0.186,3122
2.048,-0.189,3122
2.049,-0.184,3122
2.050,-0.170,3122
2.051,-0.138,3122
2.052,-0.111,3122
2.053,-0.086,3122
2.054,-0.054,3122
2.055,-0.034,3122
2.056,-0.024,3122
2.057,-0.026,3133
2.058,-0.034,3133
2.059,-0.055,3133
2.060,-0.126,3133
2.061,-0.171,3133
2.062,-0.214,3133
2.063,-0.254,3133
2.064,-0.290,3133
2.065,-0.321,3133
2.066,-0.333,3128
2.067,-0.333,3128
2.068,-0.326,3128
2.069,-0.306,3128
2.070,-0.281,3128
2.071,-0.249,3128
2.072,-0.210,3128
2.073,-0.181,3128
2.074,-0.150,3128
2.075,-0.131,3128
2.076,-0.124,3121
2.077,-0.129,3121
2.078,-0.145,3121
2.079,-0.170,3121
2.080,-0.241,3121
2.081,-0.311,3121
2.082,-0.305,3121
2.083,-0.336,3121
2.084,-0.356,3121
2.085,-0.366,3097
2.086,-0.369,3097
2.087,-0.361,3097
2.088,-0.344,3097
2.089,-0.311,3097
2.090,-0.276,3097
2.091,-0.244,3097
2.092,-0.206,3097
2.093,-0.171,3097
2.094,-0.146,3097
2.095,-0.129,3120
2.096,-0.124,3120
2.097,-0.129,3120
2.098,-0.144,3120
2.099,-0.171,3120
2.100,-0.254,3120
2.101,-0.289,3120
2.102,-0.326,3120
2.103,-0.354,3120
2.104,-0.370,3127
2.105,-0.376,3127
2.106,-0.365,3127
2.107,-0.343,3127
2.108,-0.309,3127
2.109,-0.280,3127
2.110,-0.246,3127
2.111,-0.214,3127
2.112,-0.190,3127
2.113,-0.176,3127
2.114,-0.166,3119
2.115,-0.164,3119
2.116,-0.166,3119
2.117,-0.176,3119
2.118,-0.194,3119
2.119,-0.223,3119
2.120,-0.289,3119
2.121,-0.311,3119
2.122,-0.329,3119
2.123,-0.336,3131
2.124,-0.343,3131
2.125,-0.331,3131
2.126,-0.305,3131
2.127,-0.276,3131
2.128,-0.244,3131
2.129,-0.205,3131
2.130,-0.171,3131
2.131,-0.139,3131
2.132,-0.121,3131
2.133,-0.114,3101
2.134,-0.121,3101
2.135,-0.136,3101
2.136,-0.169,3101
2.137,-0.203,3101
2.138,-0.244,3101
2.139,-0.276,3101
2.140,-0.336,3101
2.141,-0.351,3101
2.142,-0.361,3113
2.143,-0.359,3113
2.144,-0.405,3113
2.145,-0.331,3113
2.146,-0.306,3113
2.147,-0.286,3113
2.148,-0.263,3113
2.149,-0.233,3113
2.150,-0.224,3113
2.151,-0.214,3113
2.152,-0.215,3108
2.153,-0.229,3108
2.154,-0.249,3108
2.155,-0.280,3108
2.156,-0.311,3108
2.157,-0.349,3108
2.158,-0.374,3108
2.159,-0.389,3108
2.160,-0.362,3108
2.161,-0.331,3108
2.162,-0.274,3103
2.163,-0.196,3103
2.164,-0.105,3103
2.165,0.019,3103
2.166,0.146,3103
2.167,0.290,3103
2.168,0.438,3103
2.169,0.591,3103
2.170,0.746,3103
2.171,0.899,3103
2.172,1.046,3119
2.173,1.190,3119
2.174,1.343,3119
2.175,1.495,3119
2.176,1.656,3119
2.177,1.811,3119
2.178,1.976,3119
2.179,2.110,3119
2.180,2.271,3113
2.181,2.235,3113
2.182,2.184,3113
2.183,2.069,3113
2.184,1.970,3113
2.185,1.849,3113
2.186,1.726,3113
2.187,1.576,3113
2.188,1.419,3113
2.189,1.238,3113
2.190,1.054,3107
2.191,0.849,3107
2.192,0.656,3107
2.193,0.449,3107
2.194,0.254,3107
2.195,0.069,3107
2.196,-0.096,3107
2.197,-0.244,3107
2.198,-0.357,3107
2.199,-0.456,3107
2.200,-0.581,3101
2.201,-0.604,3101
2.202,-0.589,3101
2.203,-0.570,3101
2.204,-0.544,3101
2.205,-0.524,3101
2.206,-0.456,3101
2.207,-0.491,3101
2.208,-0.486,3111
2.209,-0.491,3111
2.210,-0.496,3111
2.211,-0.506,3111
2.212,-0.524,3111
2.213,-0.535,3111
2.214,-0.550,3111
2.215,-0.564,3111
2.216,-0.566,3111
2.217,-0.552,3111
2.218,-0.545,3107
2.219,-0.529,3107
2.220,-0.454,3107
2.221,-0.424,3107
2.222,-0.383,3107
2.223,-0.349,3107
2.224,-0.324,3107
2.225,-0.296,3107
2.226,-0.285,3107
2.227,-0.281,3093
2.228,-0.286,3093
2.229,-0.302,3093
2.230,-0.334,3093
2.231,-0.366,3093
2.232,-0.409,3093
2.233,-0.444,3093
2.234,-0.470,3093
2.235,-0.489,3093
2.236,-0.502,3093
2.237,-0.494,3097
2.238,-0.470,3097
2.239,-0.445,3097
2.240,-0.369,3097
2.241,-0.341,3097
2.242,-0.304,3097
2.243,-0.281,3097
2.244,-0.266,3097
2.245,-0.263,3097
2.246,-0.270,3101
2.247,-0.282,3101
2.248,-0.314,3101
2.249,-0.346,3101
2.250,-0.384,3101
2.251,-0.417,3101
2.252,-0.450,3101
2.253,-0.471,3101
2.254,-0.491,3101
2.255,-0.496,3101
2.256,-0.486,3106
2.257,-0.456,3106
2.258,-0.426,3106
2.259,-0.384,3106
2.260,-0.295,3106
2.261,-0.266,3106
2.262,-0.234,3106
2.263,-0.214,3106
2.264,-0.204,3106
2.265,-0.206,3074
2.266,-0.217,3074
2.267,-0.245,3074
2.268,-0.274,3074
2.269,-0.354,3074
2.270,-0.344,3074
2.271,-0.374,3074
2.272,-0.406,3074
2.273,-0.426,3074
2.274,-0.431,3074
2.275,-0.434,3122
2.276,-0.424,3122
2.277,-0.405,3122
2.278,-0.372,3122
2.279,-0.345,3122
2.280,-0.266,3122
2.281,-0.231,3122
2.282,-0.209,3122
2.283,-0.194,3122
2.284,-0.186,3107
2.285,-0.189,3107
2.286,-0.205,3107
2.287,-0.226,3107
2.288,-0.263,3107
2.289,-0.294,3107
2.290,-0.330,3107
2.291,-0.355,3107
2.292,-0.370,3107
2.293,-0.376,3107
2.294,-0.374,3087
2.295,-0.361,3087
2.296,-0.345,3087
2.297,-0.311,3087
2.298,-0.284,3087
2.299,-0.247,3087
2.300,-0.186,3087
2.301,-0.169,3087
2.302,-0.165,3087
2.303,-0.164,3127
2.304,-0.174,3127
2.305,-0.191,3127
2.306,-0.214,3127
2.307,-0.250,3127
2.308,-0.276,3127
2.309,-0.305,3127
2.310,-0.329,3127
2.311,-0.347,3127
2.312,-0.354,3127
2.313,-0.349,3115
2.314,-0.333,3115
2.315,-0.306,3115
2.316,-0.282,3115
2.317,-0.250,3115
2.318,-0.215,3115
2.319,-0.190,3115
2.320,-0.146,3115
2.321,-0.142,3115
2.322,-0.141,3136
2.323,-0.151,3136
2.324,-0.170,3136
2.325,-0.191,3136
2.326,-0.221,3136
2.327,-0.251,3136
2.328,-0.281,3136
2.329,-0.306,3136
2.330,-0.324,3136
2.331,-0.334,3136
2.332,-0.330,3136
2.333,-0.321,3136
2.334,-0.296,3136
2.335,-0.266,3136
2.336,-0.230,3136
2.337,-0.203,3136
2.338,-0.166,3136
2.339,-0.133,3136
2.340,-0.091,3136
2.341,-0.100,3113
2.342,-0.124,3113
2.343,-0.149,3113
2.344,-0.179,3113
2.345,-0.212,3113
2.346,-0.244,3113
2.347,-0.264,3113
2.348,-0.281,3113
2.349,-0.284,3113
2.350,-0.280,3105
2.351,-0.266,3105
2.352,-0.246,3105
2.353,-0.221,3105
2.354,-0.194,3105
2.355,-0.166,3105
2.356,-0.135,3105
2.357,-0.109,3105
2.358,-0.090,3105
2.359,-0.081,3105
2.360,-0.085,3132
2.361,-0.120,3132
2.362,-0.146,3132
2.363,-0.171,3132
2.364,-0.191,3132
2.365,-0.204,3132
2.366,-0.214,3132
2.367,-0.211,3132
2.368,-0.206,3123
2.369,-0.189,3123
2.370,-0.169,3123
2.371,-0.135,3123
2.372,-0.104,3123
2.373,-0.066,3123
2.374,-0.034,3123
2.375,-0.005,3123
2.376,0.026,3123
2.377,0.034,3123
2.378,0.036,3120
2.379,0.026,3120
2.380,-0.028,3120
2.381,-0.054,3120
2.382,-0.092,3120
2.383,-0.126,3120
2.384,-0.161,3120
2.385,-0.184,3120
2.386,-0.196,3120
2.387,-0.198,3117
2.388,-0.191,3117
2.389,-0.174,3117
2.390,-0.146,3117
2.391,-0.114,3117
2.392,-0.074,3117
2.393,-0.045,3117
2.394,-0.011,3117
2.395,0.021,3117
2.396,0.036,3117
2.397,0.046,3115
2.398,0.039,3115
2.399,0.024,3115
2.400,-0.049,3115
2.401,-0.081,3115
2.402,-0.116,3115
2.403,-0.145,3115
2.404,-0.169,3115
2.405,-0.184,3115
2.406,-0.189,3119
2.407,-0.186,3119
2.408,-0.166,3119
2.409,-0.141,3119
2.410,-0.104,3119
2.411,-0.066,3119
2.412,-0.029,3119
2.413,0.009,3119
2.414,0.024,3119
2.415,0.031,3119
2.416,0.026,3118
2.417,0.011,3118
2.418,-0.016,3118
2.419,-0.054,3118
