Czas(s),PPG_Surowe(ADC)
0.000,-18991
0.004,-18991
0.008,-18991
0.012,-18991
0.016,-18991
0.020,-18991
0.024,-18991
0.028,-18991
0.032,-18991
0.036,-18998
0.040,-18998
0.044,-18998
0.048,-18998
0.052,-18998
0.056,-18998
0.060,-18998
0.064,-18998
0.068,-18998
0.072,-18998
0.076,-19009
0.080,-19009
0.084,-19009
0.088,-19009
0.092,-19009
0.096,-19009
0.100,-19009
0.104,-19009
0.108,-19009
0.112,-18980
0.116,-18980
0.120,-18980
0.124,-18980
0.128,-18980
0.132,-18980
0.136,-18980
0.140,-18980
0.144,-18980
0.148,-18980
0.152,-18982
0.156,-18982
0.160,-18982
0.164,-18982
0.168,-18982
0.172,-18982
0.176,-18982
0.180,-18982
0.184,-18982
0.188,-18978
0.192,-18978
0.196,-18978
0.200,-18978
0.204,-18978
0.208,-18978
0.212,-18978
0.216,-18978
0.220,-18978
0.224,-18978
0.228,-18967
0.232,-18967
0.236,-18967
0.240,-18967
0.244,-18967
0.248,-18967
0.252,-18967
0.256,-18967
0.260,-18967
0.264,-18968
0.268,-18968
0.272,-18968
0.276,-18968
0.280,-18968
0.284,-18968
0.288,-18968
0.292,-18968
0.296,-18968
0.300,-18968
0.304,-18985
0.308,-18985
0.312,-18985
0.316,-18985
0.320,-18985
0.324,-18985
0.328,-18985
0.332,-18985
0.336,-18985
0.340,-18982
0.344,-18982
0.348,-18982
0.352,-18982
0.356,-18982
0.360,-18982
0.364,-18982
0.368,-18982
0.372,-18982
0.376,-18982
0.380,-19016
0.384,-19016
0.388,-19016
0.392,-19016
0.396,-19016
0.400,-19016
0.404,-19016
0.408,-19016
0.412,-19016
0.416,-19017
0.420,-19017
0.424,-19017
0.428,-19017
0.432,-19017
0.436,-19017
0.440,-19017
0.444,-19017
0.448,-19017
0.452,-19017
0.456,-19014
0.460,-19014
0.464,-19014
0.468,-19014
0.472,-19014
0.476,-19014
0.480,-19014
0.484,-19014
0.488,-19014
0.492,-19000
0.496,-19000
0.500,-19000
0.504,-19000
0.508,-19000
0.512,-19000
0.516,-19000
0.520,-19000
0.524,-19000
0.528,-19000
0.532,-19006
0.536,-19006
0.540,-19006
0.544,-19006
0.548,-19006
0.552,-19006
0.556,-19006
0.560,-19006
0.564,-19006
0.568,-19011
0.572,-19011
0.576,-19011
0.580,-19011
0.584,-19011
0.588,-19011
0.592,-19011
0.596,-19011
0.600,-19011
0.604,-19011
0.608,-19010
0.612,-19010
0.616,-19010
0.620,-19010
0.624,-19010
0.628,-19010
0.632,-19010
0.636,-19010
0.640,-19010
0.644,-18973
0.648,-18973
0.652,-18973
0.656,-18973
0.660,-18973
0.664,-18973
0.668,-18973
0.672,-18973
0.676,-18973
0.680,-18973
0.684,-19051
0.688,-19051
0.692,-19051
0.696,-19051
0.700,-19051
0.704,-19051
0.708,-19051
0.712,-19051
0.716,-19051
0.720,-18980
0.724,-18980
0.728,-18980
0.732,-18980
0.736,-18980
0.740,-18980
0.744,-18980
0.748,-18980
0.752,-18980
0.756,-18980
0.760,-18980
0.764,-18980
0.768,-18980
0.772,-18980
0.776,-18980
0.780,-18980
0.784,-18980
0.788,-18980
0.792,-18980
0.796,-18980
0.800,-18969
0.804,-18969
0.808,-18969
0.812,-18969
0.816,-18969
0.820,-18969
0.824,-18969
0.828,-18969
0.832,-18969
0.836,-18969
0.840,-18923
0.844,-18923
0.848,-18923
0.852,-18923
0.856,-18923
0.860,-18923
0.864,-18923
0.868,-18923
0.872,-18923
0.876,-18923
0.880,-18940
0.884,-18940
0.888,-18940
0.892,-18940
0.896,-18940
0.900,-18940
0.904,-18940
0.908,-18940
0.912,-18940
0.916,-18923
0.920,-18923
0.924,-18923
0.928,-18923
0.932,-18923
0.936,-18923
0.940,-18923
0.944,-18923
0.948,-18923
0.952,-18923
0.956,-18921
0.960,-18921
0.964,-18921
0.968,-18921
0.972,-18921
0.976,-18921
0.980,-18921
0.984,-18921
0.988,-18903
0.992,-18903
0.996,-18903
1.000,-18903
1.004,-18903
1.008,-18903
1.012,-18903
1.016,-18903
1.020,-18903
1.024,-18903
1.028,-18874
1.032,-18874
1.036,-18874
1.040,-18874
1.044,-18874
1.048,-18874
1.052,-18874
1.056,-18874
1.060,-18874
1.064,-18839
1.068,-18839
1.072,-18839
1.076,-18839
1.080,-18839
1.084,-18839
1.088,-18839
1.092,-18839
1.096,-18839
1.100,-18839
1.104,-18845
1.108,-18845
1.112,-18845
1.116,-18845
1.120,-18845
1.124,-18845
1.128,-18845
1.132,-18845
1.136,-18845
1.140,-18791
1.144,-18791
1.148,-18791
1.152,-18791
1.156,-18791
1.160,-18791
1.164,-18791
1.168,-18791
1.172,-18791
1.176,-18791
1.180,-18743
1.184,-18743
1.188,-18743
1.192,-18743
1.196,-18743
1.200,-18743
1.204,-18743
1.208,-18743
1.212,-18743
1.216,-18725
1.220,-18725
1.224,-18725
1.228,-18725
1.232,-18725
1.236,-18725
1.240,-18725
1.244,-18725
1.248,-18725
1.252,-18725
1.256,-18673
1.260,-18673
1.264,-18673
1.268,-18673
1.272,-18673
1.276,-18673
1.280,-18673
1.284,-18673
1.288,-18673
1.292,-18644
1.296,-18644
1.300,-18644
1.304,-18644
1.308,-18644
1.312,-18644
1.316,-18644
1.320,-18644
1.324,-18644
1.328,-18644
1.332,-18630
1.336,-18630
1.340,-18630
1.344,-18630
1.348,-18630
1.352,-18630
1.356,-18630
1.360,-18630
1.364,-18630
1.368,-18644
1.372,-18644
1.376,-18644
1.380,-18644
1.384,-18644
1.388,-18644
1.392,-18644
1.396,-18644
1.400,-18644
1.404,-18644
1.408,-18626
1.412,-18626
1.416,-18626
1.420,-18626
1.424,-18626
1.428,-18626
1.432,-18626
1.436,-18626
1.440,-18626
1.444,-18648
1.448,-18648
1.452,-18648
1.456,-18648
1.460,-18648
1.464,-18648
1.468,-18648
1.472,-18648
1.476,-18648
1.480,-18648
1.484,-18628
1.488,-18628
1.492,-18628
1.496,-18628
1.500,-18628
1.504,-18628
1.508,-18628
1.512,-18628
1.516,-18628
1.520,-18639
1.524,-18639
1.528,-18639
1.532,-18639
1.536,-18639
1.540,-18639
1.544,-18639
1.548,-18639
1.552,-18639
1.556,-18630
1.560,-18630
1.564,-18630
1.568,-18630
1.572,-18630
1.576,-18630
1.580,-18630
1.584,-18630
1.588,-18630
1.592,-18630
1.596,-18617
1.600,-18617
1.604,-18617
1.608,-18617
1.612,-18617
1.616,-18617
1.620,-18617
1.624,-18617
1.628,-18617
1.632,-18555
1.636,-18555
1.640,-18555
1.644,-18555
1.648,-18555
1.652,-18555
1.656,-18555
1.660,-18555
1.664,-18555
1.668,-18555
1.672,-18550
1.676,-18550
1.680,-18550
1.684,-18550
1.688,-18550
1.692,-18550
1.696,-18550
1.700,-18550
1.704,-18550
1.708,-18519
1.712,-18519
1.716,-18519
1.720,-18519
1.724,-18519
1.728,-18519
1.732,-18519
1.736,-18519
1.740,-18519
1.744,-18519
1.748,-18556
1.752,-18556
1.756,-18556
1.760,-18556
1.764,-18556
1.768,-18556
1.772,-18556
1.776,-18556
1.780,-18556
1.784,-18556
1.788,-18536
1.792,-18536
1.796,-18536
1.800,-18536
1.804,-18536
1.808,-18536
1.812,-18536
1.816,-18536
1.820,-18536
1.824,-18536
1.828,-18563
1.832,-18563
1.836,-18563
1.840,-18563
1.844,-18563
1.848,-18563
1.852,-18563
1.856,-18563
1.860,-18563
1.864,-18522
1.868,-18522
1.872,-18522
1.876,-18522
1.880,-18522
1.884,-18522
1.888,-18522
1.892,-18522
1.896,-18522
1.900,-18522
1.904,-18543
1.908,-18543
1.912,-18543
1.916,-18543
1.920,-18543
1.924,-18543
1.928,-18543
1.932,-18543
1.936,-18543
1.940,-18487
1.944,-18487
1.948,-18487
1.952,-18487
1.956,-18487
1.960,-18487
1.964,-18487
1.968,-18487
1.972,-18487
1.976,-18487
1.980,-18440
1.984,-18440
1.988,-18440
1.992,-18440
1.996,-18440
2.000,-18440
2.004,-18440
2.008,-18440
2.012,-18440
2.016,-18405
2.020,-18405
2.024,-18405
2.028,-18405
2.032,-18405
2.036,-18405
2.040,-18405
2.044,-18405
2.048,-18405
2.052,-18405
2.056,-18367
2.060,-18367
2.064,-18367
2.068,-18367
2.072,-18367
2.076,-18367
2.080,-18367
2.084,-18367
2.088,-18367
2.092,-18311
2.096,-18311
2.100,-18311
2.104,-18311
2.108,-18311
2.112,-18311
2.116,-18311
2.120,-18311
2.124,-18311
2.128,-18311
2.132,-18296
2.136,-18296
2.140,-18296
2.144,-18296
2.148,-18296
2.152,-18296
2.156,-18296
2.160,-18296
2.164,-18296
2.168,-18254
2.172,-18254
2.176,-18254
2.180,-18254
2.184,-18254
2.188,-18254
2.192,-18254
2.196,-18254
2.200,-18254
2.204,-18254
2.208,-18227
2.212,-18227
2.216,-18227
2.220,-18227
2.224,-18227
2.228,-18227
2.232,-18227
2.236,-18227
2.240,-18227
2.244,-18208
2.248,-18208
2.252,-18208
2.256,-18208
2.260,-18208
2.264,-18208
2.268,-18208
2.272,-18208
2.276,-18208
2.280,-18208
2.284,-18250
2.288,-18250
2.292,-18250
2.296,-18250
2.300,-18250
2.304,-18250
2.308,-18250
2.312,-18250
2.316,-18250
2.320,-18222
2.324,-18222
2.328,-18222
2.332,-18222
2.336,-18222
2.340,-18222
2.344,-18222
2.348,-18222
2.352,-18222
2.356,-18222
2.360,-18215
2.364,-18215
2.368,-18215
2.372,-18215
2.376,-18215
2.380,-18215
2.384,-18215
2.388,-18215
2.392,-18215
2.396,-18215
2.400,-18164
2.404,-18164
2.408,-18164
2.412,-18164
2.416,-18164
2.420,-18164
2.424,-18164
2.428,-18164
2.432,-18164
2.436,-18118
2.440,-18118
2.444,-18118
2.448,-18118
2.452,-18118
2.456,-18118
2.460,-18118
2.464,-18118
2.468,-18118
2.472,-18118
2.476,-18065
2.480,-18065
2.484,-18065
2.488,-18065
2.492,-18065
2.496,-18065
2.500,-18065
2.504,-18065
2.508,-18065
2.512,-18066
2.516,-18066
2.520,-18066
2.524,-18066
2.528,-18066
2.532,-18066
2.536,-18066
2.540,-18066
2.544,-18066
2.548,-18066
2.552,-18025
2.556,-18025
2.560,-18025
2.564,-18025
2.568,-18025
2.572,-18025
2.576,-18025
2.580,-18025
2.584,-18025
2.588,-18036
2.592,-18036
2.596,-18036
2.600,-18036
2.604,-18036
2.608,-18036
2.612,-18036
2.616,-18036
2.620,-18036
2.624,-18036
2.628,-18030
2.632,-18030
2.636,-18030
2.640,-18030
2.644,-18030
2.648,-18030
2.652,-18030
2.656,-18030
2.660,-18030
2.664,-18054
2.668,-18054
2.672,-18054
2.676,-18054
2.680,-18054
2.684,-18054
2.688,-18054
2.692,-18054
2.696,-18054
2.700,-18054
2.704,-18040
2.708,-18040
2.712,-18040
2.716,-18040
2.720,-18040
2.724,-18040
2.728,-18040
2.732,-18040
2.736,-18040
2.740,-18102
2.744,-18102
2.748,-18102
2.752,-18102
2.756,-18102
2.760,-18102
2.764,-18102
2.768,-18102
2.772,-18102
2.776,-18102
2.780,-18124
2.784,-18124
2.788,-18124
2.792,-18124
2.796,-18124
2.800,-18124
2.804,-18124
2.808,-18124
2.812,-18124
2.816,-18208
2.820,-18208
2.824,-18208
2.828,-18208
2.832,-18208
2.836,-18208
2.840,-18208
2.844,-18208
2.848,-18208
2.852,-18208
2.856,-18208
2.860,-18252
2.864,-18252
2.868,-18252
2.872,-18252
2.876,-18252
2.880,-18252
2.884,-18252
2.888,-18252
2.892,-18252
2.896,-18317
2.900,-18317
2.904,-18317
2.908,-18317
2.912,-18317
2.916,-18317
2.920,-18317
2.924,-18317
2.928,-18317
2.932,-18317
2.936,-18366
2.940,-18366
2.944,-18366
2.948,-18366
2.952,-18366
2.956,-18366
2.960,-18366
2.964,-18366
2.968,-18366
2.972,-18468
2.976,-18468
2.980,-18468
2.984,-18468
2.988,-18468
2.992,-18468
2.996,-18468
3.000,-18468
3.004,-18468
3.008,-18468
3.012,-18513
3.016,-18513
3.020,-18513
3.024,-18513
3.028,-18513
3.032,-18513
3.036,-18513
3.040,-18513
3.044,-18513
3.048,-18544
3.052,-18544
3.056,-18544
3.060,-18544
3.064,-18544
3.068,-18544
3.072,-18544
3.076,-18544
3.080,-18544
3.084,-18544
3.088,-18565
3.092,-18565
3.096,-18565
3.100,-18565
3.104,-18565
3.108,-18565
3.112,-18565
3.116,-18565
3.120,-18565
3.124,-18587
3.128,-18587
3.132,-18587
3.136,-18587
3.140,-18587
3.144,-18587
3.148,-18587
3.152,-18587
3.156,-18587
3.160,-18587
3.164,-18595
3.168,-18595
3.172,-18595
3.176,-18595
3.180,-18595
3.184,-18595
3.188,-18595
3.192,-18595
3.196,-18595
3.200,-18607
3.204,-18607
3.208,-18607
3.212,-18607
3.216,-18607
3.220,-18607
3.224,-18607
3.228,-18607
3.232,-18607
3.236,-18607
3.240,-18626
3.244,-18626
3.248,-18626
3.252,-18626
3.256,-18626
3.260,-18626
3.264,-18626
3.268,-18626
3.272,-18626
3.276,-18626
3.280,-18639
3.284,-18639
3.288,-18639
3.292,-18639
3.296,-18639
3.300,-18639
3.304,-18639
3.308,-18639
3.312,-18639
3.316,-18647
3.320,-18647
3.324,-18647
3.328,-18647
3.332,-18647
3.336,-18647
3.340,-18647
3.344,-18647
3.348,-18647
3.352,-18647
3.356,-18661
3.360,-18661
3.364,-18661
3.368,-18661
3.372,-18661
3.376,-18661
3.380,-18661
3.384,-18661
3.388,-18661
3.392,-18644
3.396,-18644
3.400,-18644
3.404,-18644
3.408,-18644
3.412,-18644
3.416,-18644
3.420,-18644
3.424,-18644
3.428,-18644
3.432,-18676
3.436,-18676
3.440,-18676
3.444,-18676
3.448,-18676
3.452,-18676
3.456,-18676
3.460,-18676
3.464,-18676
3.468,-18674
3.472,-18674
3.476,-18674
3.480,-18674
3.484,-18674
3.488,-18674
3.492,-18674
3.496,-18674
3.500,-18674
3.504,-18674
3.508,-18693
3.512,-18693
3.516,-18693
3.520,-18693
3.524,-18693
3.528,-18693
3.532,-18693
3.536,-18693
3.540,-18693
3.544,-18710
3.548,-18710
3.552,-18710
3.556,-18710
3.560,-18710
3.564,-18710
3.568,-18710
3.572,-18710
3.576,-18710
3.580,-18710
3.584,-18713
3.588,-18713
3.592,-18713
3.596,-18713
3.600,-18713
3.604,-18713
3.608,-18713
3.612,-18713
3.616,-18713
3.620,-18707
3.624,-18707
3.628,-18707
3.632,-18707
3.636,-18707
3.640,-18707
3.644,-18707
3.648,-18707
3.652,-18707
3.656,-18707
3.660,-18692
3.664,-18692
3.668,-18692
3.672,-18692
3.676,-18692
3.680,-18692
3.684,-18692
3.688,-18692
3.692,-18692
3.696,-18693
3.700,-18693
3.704,-18693
3.708,-18693
3.712,-18693
3.716,-18693
3.720,-18693
3.724,-18693
3.728,-18693
3.732,-18693
3.736,-18649
3.740,-18649
3.744,-18649
3.748,-18649
3.752,-18649
3.756,-18649
3.760,-18649
3.764,-18649
3.768,-18649
3.772,-18642
3.776,-18642
3.780,-18642
3.784,-18642
3.788,-18642
3.792,-18642
3.796,-18642
3.800,-18642
3.804,-18642
3.808,-18642
3.812,-18609
3.816,-18609
3.820,-18609
3.824,-18609
3.828,-18609
3.832,-18609
3.836,-18609
3.840,-18609
3.844,-18609
3.848,-18587
3.852,-18587
3.856,-18587
3.860,-18587
3.864,-18587
3.868,-18587
3.872,-18587
3.876,-18587
3.880,-18587
3.884,-18587
3.888,-18588
3.892,-18588
3.896,-18588
3.900,-18588
3.904,-18588
3.908,-18588
3.912,-18588
3.916,-18588
3.920,-18588
3.924,-18588
3.928,-18588
3.932,-18588
3.936,-18588
3.940,-18588
3.944,-18588
3.948,-18588
3.952,-18588
3.956,-18588
3.960,-18588
3.964,-18588
3.968,-18620
3.972,-18620
3.976,-18620
3.980,-18620
3.984,-18620
3.988,-18620
3.992,-18620
3.996,-18620
4.000,-18634
4.004,-18634
4.008,-18634
4.012,-18634
4.016,-18634
4.020,-18634
4.024,-18634
4.028,-18634
4.032,-18634
4.036,-18634
4.040,-18634
4.044,-18622
4.048,-18622
4.052,-18622
4.056,-18622
4.060,-18622
4.064,-18622
4.068,-18622
4.072,-18622
4.076,-18622
4.080,-18614
4.084,-18614
4.088,-18614
4.092,-18614
4.096,-18614
4.100,-18614
4.104,-18614
4.108,-18614
4.112,-18614
4.116,-18614
4.120,-18583
4.124,-18583
4.128,-18583
4.132,-18583
4.136,-18583
4.140,-18583
4.144,-18583
4.148,-18583
4.152,-18583
4.156,-18583
4.160,-18583
4.164,-18583
4.168,-18583
4.172,-18583
4.176,-18583
4.180,-18583
4.184,-18583
4.188,-18583
4.192,-18583
4.196,-18597
4.200,-18597
4.204,-18597
4.208,-18597
4.212,-18597
4.216,-18597
4.220,-18597
4.224,-18597
4.228,-18597
4.232,-18597
4.236,-18556
4.240,-18556
4.244,-18556
4.248,-18556
4.252,-18556
4.256,-18556
4.260,-18556
4.264,-18556
4.268,-18556
4.272,-18561
4.276,-18561
4.280,-18561
4.284,-18561
4.288,-18561
4.292,-18561
4.296,-18561
4.300,-18561
4.304,-18561
4.308,-18561
4.312,-18552
4.316,-18552
4.320,-18552
4.324,-18552
4.328,-18552
4.332,-18552
4.336,-18552
4.340,-18552
4.344,-18552
4.348,-18534
4.352,-18534
4.356,-18534
4.360,-18534
4.364,-18534
4.368,-18534
4.372,-18534
4.376,-18534
4.380,-18534
4.384,-18534
4.388,-18505
4.392,-18505
4.396,-18505
4.400,-18505
4.404,-18505
4.408,-18505
4.412,-18505
4.416,-18505
4.420,-18505
4.424,-18479
4.428,-18479
4.432,-18479
4.436,-18479
4.440,-18479
4.444,-18479
4.448,-18479
4.452,-18479
4.456,-18479
4.460,-18479
4.464,-18436
4.468,-18436
4.472,-18436
4.476,-18436
4.480,-18436
4.484,-18436
4.488,-18436
4.492,-18436
4.496,-18436
4.500,-18450
4.504,-18450
4.508,-18450
4.512,-18450
4.516,-18450
4.520,-18450
4.524,-18450
4.528,-18450
4.532,-18450
4.536,-18450
4.540,-18446
4.544,-18446
4.548,-18446
4.552,-18446
4.556,-18446
4.560,-18446
4.564,-18446
4.568,-18446
4.572,-18446
4.576,-18441
4.580,-18441
4.584,-18441
4.588,-18441
4.592,-18441
4.596,-18441
4.600,-18441
4.604,-18441
4.608,-18441
4.612,-18441
4.616,-18430
4.620,-18430
4.624,-18430
4.628,-18430
4.632,-18430
4.636,-18430
4.640,-18430
4.644,-18430
4.648,-18430
4.652,-18424
4.656,-18424
4.660,-18424
4.664,-18424
4.668,-18424
4.672,-18424
4.676,-18424
4.680,-18424
4.684,-18424
4.688,-18424
4.692,-18393
4.696,-18393
4.700,-18393
4.704,-18393
4.708,-18393
4.712,-18393
4.716,-18393
4.720,-18393
4.724,-18393
4.728,-18360
4.732,-18360
4.736,-18360
4.740,-18360
4.744,-18360
4.748,-18360
4.752,-18360
4.756,-18360
4.760,-18360
4.764,-18360
4.768,-18328
4.772,-18328
4.776,-18328
4.780,-18328
4.784,-18328
4.788,-18328
4.792,-18328
4.796,-18328
4.800,-18328
4.804,-18338
4.808,-18338
4.812,-18338
4.816,-18338
4.820,-18338
4.824,-18338
4.828,-18338
4.832,-18338
4.836,-18338
4.840,-18338
4.844,-18349
4.848,-18349
4.852,-18349
4.856,-18349
4.860,-18349
4.864,-18349
4.868,-18349
4.872,-18349
4.876,-18349
4.880,-18327
4.884,-18327
4.888,-18327
4.892,-18327
4.896,-18327
4.900,-18327
4.904,-18327
4.908,-18327
4.912,-18327
4.916,-18327
4.920,-18300
4.924,-18300
4.928,-18300
4.932,-18300
4.936,-18300
4.940,-18300
4.944,-18300
4.948,-18300
4.952,-18300
4.956,-18300
4.960,-18298
4.964,-18298
4.968,-18298
4.972,-18298
4.976,-18298
4.980,-18298
4.984,-18298
4.988,-18298
4.992,-18298
4.996,-18298
5.000,-18318
5.004,-18318
5.008,-18318
5.012,-18318
5.016,-18318
5.020,-18318
5.024,-18318
5.028,-18318
5.032,-18318
5.036,-18318
5.040,-18299
5.044,-18299
5.048,-18299
5.052,-18299
5.056,-18299
5.060,-18299
5.064,-18299
5.068,-18299
5.072,-18299
5.076,-18312
5.080,-18312
5.084,-18312
5.088,-18312
5.092,-18312
5.096,-18312
5.100,-18312
5.104,-18312
5.108,-18312
5.112,-18312
5.116,-18297
5.120,-18297
5.124,-18297
5.128,-18297
5.132,-18297
5.136,-18297
5.140,-18297
5.144,-18297
5.148,-18297
5.152,-18281
5.156,-18281
5.160,-18281
5.164,-18281
5.168,-18281
5.172,-18281
5.176,-18281
5.180,-18281
5.184,-18281
5.188,-18281
5.192,-18296
5.196,-18296
5.200,-18296
5.204,-18296
5.208,-18296
5.212,-18296
5.216,-18296
5.220,-18296
5.224,-18296
5.228,-18268
5.232,-18268
5.236,-18268
5.240,-18268
5.244,-18268
5.248,-18268
5.252,-18268
5.256,-18268
5.260,-18268
5.264,-18268
5.268,-18275
5.272,-18275
5.276,-18275
5.280,-18275
5.284,-18275
5.288,-18275
5.292,-18275
5.296,-18275
5.300,-18275
5.304,-18241
5.308,-18241
5.312,-18241
5.316,-18241
5.320,-18241
5.324,-18241
5.328,-18241
5.332,-18241
5.336,-18241
5.340,-18241
5.344,-18232
5.348,-18232
5.352,-18232
5.356,-18232
5.360,-18232
5.364,-18232
5.368,-18232
5.372,-18232
5.376,-18232
5.380,-18200
5.384,-18200
5.388,-18200
5.392,-18200
5.396,-18200
5.400,-18200
5.404,-18200
5.408,-18200
5.412,-18200
5.416,-18200
5.420,-18182
5.424,-18182
5.428,-18182
5.432,-18182
5.436,-18182
5.440,-18182
5.444,-18182
5.448,-18182
5.452,-18182
5.456,-18143
5.460,-18143
5.464,-18143
5.468,-18143
5.472,-18143
5.476,-18143
5.480,-18143
5.484,-18143
5.488,-18143
5.492,-18143
5.496,-18139
5.500,-18139
5.504,-18139
5.508,-18139
5.512,-18139
5.516,-18139
5.520,-18139
5.524,-18139
5.528,-18139
5.532,-18126
5.536,-18126
5.540,-18126
5.544,-18126
5.548,-18126
5.552,-18126
5.556,-18126
5.560,-18126
5.564,-18126
5.568,-18126
5.572,-18104
5.576,-18104
5.580,-18104
5.584,-18104
5.588,-18104
5.592,-18104
5.596,-18104
5.600,-18104
5.604,-18104
5.608,-18076
5.612,-18076
5.616,-18076
5.620,-18076
5.624,-18076
5.628,-18076
5.632,-18076
5.636,-18076
5.640,-18076
5.644,-18076
5.648,-18088
5.652,-18088
5.656,-18088
5.660,-18088
5.664,-18088
5.668,-18088
5.672,-18088
5.676,-18088
5.680,-18088
5.684,-18049
5.688,-18049
5.692,-18049
5.696,-18049
5.700,-18049
5.704,-18049
5.708,-18049
5.712,-18049
5.716,-18049
5.720,-18049
5.724,-18033
5.728,-18033
5.732,-18033
5.736,-18033
5.740,-18033
5.744,-18033
5.748,-18033
5.752,-18033
5.756,-18033
5.760,-18015
5.764,-18015
5.768,-18015
5.772,-18015
5.776,-18015
5.780,-18015
5.784,-18015
5.788,-18015
5.792,-18015
5.796,-18015
5.800,-17997
5.804,-17997
5.808,-17997
5.812,-17997
5.816,-17997
5.820,-17997
5.824,-17997
5.828,-17997
5.832,-17997
5.836,-17997
5.840,-17962
5.844,-17962
5.848,-17962
5.852,-17962
5.856,-17962
5.860,-17962
5.864,-17962
5.868,-17962
5.872,-17962
5.876,-17951
5.880,-17951
5.884,-17951
5.888,-17951
5.892,-17951
5.896,-17951
5.900,-17951
5.904,-17951
5.908,-17951
5.912,-17951
5.916,-17940
5.920,-17940
5.924,-17940
5.928,-17940
5.932,-17940
5.936,-17940
5.940,-17940
5.944,-17940
5.948,-17940
5.952,-17941
5.956,-17941
5.960,-17941
5.964,-17941
5.968,-17941
5.972,-17941
5.976,-17941
5.980,-17941
5.984,-17941
5.988,-17941
5.992,-17947
5.996,-17947
6.000,-17947
6.004,-17947
6.008,-17947
6.012,-17947
6.016,-17947
6.020,-17947
6.024,-17947
6.028,-17964
6.032,-17964
6.036,-17964
6.040,-17964
6.044,-17964
6.048,-17964
6.052,-17964
6.056,-17964
6.060,-17964
6.064,-17964
6.068,-17964
6.072,-17948
6.076,-17948
6.080,-17948
6.084,-17948
6.088,-17948
6.092,-17948
6.096,-17948
6.100,-17948
6.104,-17948
6.108,-17950
6.112,-17950
6.116,-17950
6.120,-17950
6.124,-17950
6.128,-17950
6.132,-17950
6.136,-17950
6.140,-17950
6.144,-17950
6.148,-17985
6.152,-17985
6.156,-17985
6.160,-17985
6.164,-17985
6.168,-17985
6.172,-17985
6.176,-17985
6.180,-17985
6.184,-18022
6.188,-18022
6.192,-18022
6.196,-18022
6.200,-18022
6.204,-18022
6.208,-18022
6.212,-18022
6.216,-18022
6.220,-18022
6.224,-18069
6.228,-18069
6.232,-18069
6.236,-18069
6.240,-18069
6.244,-18069
6.248,-18069
6.252,-18069
6.256,-18069
6.260,-18160
6.264,-18160
6.268,-18160
6.272,-18160
6.276,-18160
6.280,-18160
6.284,-18160
6.288,-18160
6.292,-18160
6.296,-18160
6.300,-18222
6.304,-18222
6.308,-18222
6.312,-18222
6.316,-18222
6.320,-18222
6.324,-18222
6.328,-18222
6.332,-18222
6.336,-18286
6.340,-18286
6.344,-18286
6.348,-18286
6.352,-18286
6.356,-18286
6.360,-18286
6.364,-18286
6.368,-18286
6.372,-18286
6.376,-18353
6.380,-18353
6.384,-18353
6.388,-18353
6.392,-18353
6.396,-18353
6.400,-18353
6.404,-18353
6.408,-18353
6.412,-18387
6.416,-18387
6.420,-18387
6.424,-18387
6.428,-18387
6.432,-18387
6.436,-18387
6.440,-18387
6.444,-18387
6.448,-18387
6.452,-18457
6.456,-18457
6.460,-18457
6.464,-18457
6.468,-18457
6.472,-18457
6.476,-18457
6.480,-18457
6.484,-18457
6.488,-18474
6.492,-18474
6.496,-18474
6.500,-18474
6.504,-18474
6.508,-18474
6.512,-18474
6.516,-18474
6.520,-18474
6.524,-18474
6.528,-18532
6.532,-18532
6.536,-18532
6.540,-18532
6.544,-18532
6.548,-18532
6.552,-18532
6.556,-18532
6.560,-18532
6.564,-18532
6.568,-18532
6.572,-18532
6.576,-18532
6.580,-18532
6.584,-18532
6.588,-18532
6.592,-18532
6.596,-18532
6.600,-18532
6.604,-18549
6.608,-18549
6.612,-18549
6.616,-18549
6.620,-18549
6.624,-18549
6.628,-18549
6.632,-18549
6.636,-18549
6.640,-18541
6.644,-18541
6.648,-18541
6.652,-18541
6.656,-18541
6.660,-18541
6.664,-18541
6.668,-18541
6.672,-18541
6.676,-18541
6.680,-18561
6.684,-18561
6.688,-18561
6.692,-18561
6.696,-18561
6.700,-18561
6.704,-18561
6.708,-18561
6.712,-18561
6.716,-18561
6.720,-18570
6.724,-18570
6.728,-18570
6.732,-18570
6.736,-18570
6.740,-18570
6.744,-18570
6.748,-18570
6.752,-18570
6.756,-18614
6.760,-18614
6.764,-18614
6.768,-18614
6.772,-18614
6.776,-18614
6.780,-18614
6.784,-18614
6.788,-18614
6.792,-18614
6.796,-18597
6.800,-18597
6.804,-18597
6.808,-18597
6.812,-18597
6.816,-18597
6.820,-18597
6.824,-18597
6.828,-18597
6.832,-18641
6.836,-18641
6.840,-18641
6.844,-18641
6.848,-18641
6.852,-18641
6.856,-18641
6.860,-18641
6.864,-18641
6.868,-18641
6.872,-18649
6.876,-18649
6.880,-18649
6.884,-18649
6.888,-18649
6.892,-18649
6.896,-18649
6.900,-18649
6.904,-18649
6.908,-18652
6.912,-18652
6.916,-18652
6.920,-18652
6.924,-18652
6.928,-18652
6.932,-18652
6.936,-18652
6.940,-18652
6.944,-18652
6.948,-18682
6.952,-18682
6.956,-18682
6.960,-18682
6.964,-18682
6.968,-18682
6.972,-18682
6.976,-18682
6.980,-18682
6.984,-18683
6.988,-18683
6.992,-18683
6.996,-18683
7.000,-18683
7.004,-18683
7.008,-18683
7.012,-18683
7.016,-18683
7.020,-18683
7.024,-18692
7.028,-18692
7.032,-18692
7.036,-18692
7.040,-18692
7.044,-18692
7.048,-18692
7.052,-18692
7.056,-18692
7.060,-18630
7.064,-18630
7.068,-18630
7.072,-18630
7.076,-18630
7.080,-18630
7.084,-18630
7.088,-18630
7.092,-18630
7.096,-18630
7.100,-18653
7.104,-18653
7.108,-18653
7.112,-18653
7.116,-18653
7.120,-18653
7.124,-18653
7.128,-18653
7.132,-18653
7.136,-18653
7.140,-18646
7.144,-18646
7.148,-18646
7.152,-18646
7.156,-18646
7.160,-18646
7.164,-18646
7.168,-18646
7.172,-18646
7.176,-18646
7.180,-18665
7.184,-18665
7.188,-18665
7.192,-18665
7.196,-18665
7.200,-18665
7.204,-18665
7.208,-18665
7.212,-18665
7.216,-18677
7.220,-18677
7.224,-18677
7.228,-18677
7.232,-18677
7.236,-18677
7.240,-18677
7.244,-18677
7.248,-18677
7.252,-18677
7.256,-18699
7.260,-18699
7.264,-18699
7.268,-18699
7.272,-18699
7.276,-18699
7.280,-18699
7.284,-18699
7.288,-18699
7.292,-18722
7.296,-18722
7.300,-18722
7.304,-18722
7.308,-18722
7.312,-18722
7.316,-18722
7.320,-18722
7.324,-18722
7.328,-18722
7.332,-18740
7.336,-18740
7.340,-18740
7.344,-18740
7.348,-18740
7.352,-18740
7.356,-18740
7.360,-18740
7.364,-18740
7.368,-18732
7.372,-18732
7.376,-18732
7.380,-18732
7.384,-18732
7.388,-18732
7.392,-18732
7.396,-18732
7.400,-18732
7.404,-18732
7.408,-18718
7.412,-18718
7.416,-18718
7.420,-18718
7.424,-18718
7.428,-18718
7.432,-18718
7.436,-18718
7.440,-18718
7.444,-18720
7.448,-18720
7.452,-18720
7.456,-18720
7.460,-18720
7.464,-18720
7.468,-18720
7.472,-18720
7.476,-18720
7.480,-18720
7.484,-18726
7.488,-18726
7.492,-18726
7.496,-18726
7.500,-18726
7.504,-18726
7.508,-18726
7.512,-18726
7.516,-18726
7.520,-18745
7.524,-18745
7.528,-18745
7.532,-18745
7.536,-18745
7.540,-18745
7.544,-18745
7.548,-18745
7.552,-18745
7.556,-18745
7.560,-18721
7.564,-18721
7.568,-18721
7.572,-18721
7.576,-18721
7.580,-18721
7.584,-18721
7.588,-18721
7.592,-18721
7.596,-18721
7.600,-18744
7.604,-18744
7.608,-18744
7.612,-18744
7.616,-18744
7.620,-18744
7.624,-18744
7.628,-18744
7.632,-18744
7.636,-18738
7.640,-18738
7.644,-18738
7.648,-18738
7.652,-18738
7.656,-18738
7.660,-18738
7.664,-18738
7.668,-18738
7.672,-18738
7.676,-18730
7.680,-18730
7.684,-18730
7.688,-18730
7.692,-18730
7.696,-18730
7.700,-18730
7.704,-18730
7.708,-18730
7.712,-18734
7.716,-18734
7.720,-18734
7.724,-18734
7.728,-18734
7.732,-18734
7.736,-18734
7.740,-18734
7.744,-18734
7.748,-18734
7.752,-18722
7.756,-18722
7.760,-18722
7.764,-18722
7.768,-18722
7.772,-18722
7.776,-18722
7.780,-18722
7.784,-18722
7.788,-18730
7.792,-18730
7.796,-18730
7.800,-18730
7.804,-18730
7.808,-18730
7.812,-18730
7.816,-18730
7.820,-18730
7.824,-18730
7.828,-18753
7.832,-18753
7.836,-18753
7.840,-18753
7.844,-18753
7.848,-18753
7.852,-18753
7.856,-18753
7.860,-18753
7.864,-18734
7.868,-18734
7.872,-18734
7.876,-18734
7.880,-18734
7.884,-18734
7.888,-18734
7.892,-18734
7.896,-18734
7.900,-18734
7.904,-18732
7.908,-18732
7.912,-18732
7.916,-18732
7.920,-18732
7.924,-18732
7.928,-18732
7.932,-18732
7.936,-18732
7.940,-18713
7.944,-18713
7.948,-18713
7.952,-18713
7.956,-18713
7.960,-18713
7.964,-18713
7.968,-18713
7.972,-18713
7.976,-18713
7.980,-18719
7.984,-18719
7.988,-18719
7.992,-18719
7.996,-18719
8.000,-18719
8.004,-18719
8.008,-18719
8.012,-18719
8.016,-18756
8.020,-18756
8.024,-18756
8.028,-18756
8.032,-18756
8.036,-18756
8.040,-18756
8.044,-18756
8.048,-18756
8.052,-18756
8.056,-18723
8.060,-18723
8.064,-18723
8.068,-18723
8.072,-18723
8.076,-18723
8.080,-18723
8.084,-18723
8.088,-18723
8.092,-18666
8.096,-18666
8.100,-18666
8.104,-18666
8.108,-18666
8.112,-18666
8.116,-18666
8.120,-18666
8.124,-18666
8.128,-18666
8.132,-18657
8.136,-18657
8.140,-18657
8.144,-18657
8.148,-18657
8.152,-18657
8.156,-18657
8.160,-18657
8.164,-18657
8.168,-18620
8.172,-18620
8.176,-18620
8.180,-18620
8.184,-18620
8.188,-18620
8.192,-18620
8.196,-18620
8.200,-18620
8.204,-18620
8.208,-18620
8.212,-18616
8.216,-18616
8.220,-18616
8.224,-18616
8.228,-18616
8.232,-18616
8.236,-18616
8.240,-18616
8.244,-18616
8.248,-18589
8.252,-18589
8.256,-18589
8.260,-18589
8.264,-18589
8.268,-18589
8.272,-18589
8.276,-18589
8.280,-18589
8.284,-18589
8.288,-18573
8.292,-18573
8.296,-18573
8.300,-18573
8.304,-18573
8.308,-18573
8.312,-18573
8.316,-18573
8.320,-18541
8.324,-18541
8.328,-18541
8.332,-18541
8.336,-18541
8.340,-18541
8.344,-18541
8.348,-18541
8.352,-18541
8.356,-18541
8.360,-18541
8.364,-18531
8.368,-18531
8.372,-18531
8.376,-18531
8.380,-18531
8.384,-18531
8.388,-18531
8.392,-18531
8.396,-18531
8.400,-18530
8.404,-18530
8.408,-18530
8.412,-18530
8.416,-18530
8.420,-18530
8.424,-18530
8.428,-18530
8.432,-18530
8.436,-18530
8.440,-18503
8.444,-18503
8.448,-18503
8.452,-18503
8.456,-18503
8.460,-18503
8.464,-18503
8.468,-18503
8.472,-18503
8.476,-18503
8.480,-18510
8.484,-18510
8.488,-18510
8.492,-18510
8.496,-18510
8.500,-18510
8.504,-18510
8.508,-18510
8.512,-18510
8.516,-18502
8.520,-18502
8.524,-18502
8.528,-18502
8.532,-18502
8.536,-18502
8.540,-18502
8.544,-18502
8.548,-18502
8.552,-18502
8.556,-18508
8.560,-18508
8.564,-18508
8.568,-18508
8.572,-18508
8.576,-18508
8.580,-18508
8.584,-18508
8.588,-18508
8.592,-18508
8.596,-18508
8.600,-18508
8.604,-18508
8.608,-18508
8.612,-18508
8.616,-18508
8.620,-18508
8.624,-18508
8.628,-18508
8.632,-18528
8.636,-18528
8.640,-18528
8.644,-18528
8.648,-18528
8.652,-18528
8.656,-18528
8.660,-18528
8.664,-18528
8.668,-18494
8.672,-18494
8.676,-18494
8.680,-18494
8.684,-18494
8.688,-18494
8.692,-18494
8.696,-18494
8.700,-18494
8.704,-18494
8.708,-18473
8.712,-18473
8.716,-18473
8.720,-18473
8.724,-18473
8.728,-18473
8.732,-18473
8.736,-18473
8.740,-18473
8.744,-18476
8.748,-18476
8.752,-18476
8.756,-18476
8.760,-18476
8.764,-18476
8.768,-18476
8.772,-18476
8.776,-18476
8.780,-18476
8.784,-18475
8.788,-18475
8.792,-18475
8.796,-18475
8.800,-18475
8.804,-18475
8.808,-18475
8.812,-18475
8.816,-18475
8.820,-18448
8.824,-18448
8.828,-18448
8.832,-18448
8.836,-18448
8.840,-18448
8.844,-18448
8.848,-18448
8.852,-18448
8.856,-18448
8.860,-18463
8.864,-18463
8.868,-18463
8.872,-18463
8.876,-18463
8.880,-18463
8.884,-18463
8.888,-18463
8.892,-18463
8.896,-18435
8.900,-18435
8.904,-18435
8.908,-18435
8.912,-18435
8.916,-18435
8.920,-18435
8.924,-18435
8.928,-18435
8.932,-18435
8.936,-18422
8.940,-18422
8.944,-18422
8.948,-18422
8.952,-18422
8.956,-18422
8.960,-18422
8.964,-18422
8.968,-18422
8.972,-18441
8.976,-18441
8.980,-18441
8.984,-18441
8.988,-18441
8.992,-18441
8.996,-18441
9.000,-18441
9.004,-18441
9.008,-18441
9.012,-18437
9.016,-18437
9.020,-18437
9.024,-18437
9.028,-18437
9.032,-18437
9.036,-18437
9.040,-18437
9.044,-18437
9.048,-18460
9.052,-18460
9.056,-18460
9.060,-18460
9.064,-18460
9.068,-18460
9.072,-18460
9.076,-18460
9.080,-18460
9.084,-18460
9.088,-18456
9.092,-18456
9.096,-18456
9.100,-18456
9.104,-18456
9.108,-18456
9.112,-18456
9.116,-18456
9.120,-18456
9.124,-18465
9.128,-18465
9.132,-18465
9.136,-18465
9.140,-18465
9.144,-18465
9.148,-18465
9.152,-18465
9.156,-18465
9.160,-18465
9.164,-18442
9.168,-18442
9.172,-18442
9.176,-18442
9.180,-18442
9.184,-18442
9.188,-18442
9.192,-18442
9.196,-18442
9.200,-18480
9.204,-18480
9.208,-18480
9.212,-18480
9.216,-18480
9.220,-18480
9.224,-18480
9.228,-18480
9.232,-18480
9.236,-18480
9.240,-18420
9.244,-18420
9.248,-18420
9.252,-18420
9.256,-18420
9.260,-18420
9.264,-18420
9.268,-18420
9.272,-18420
9.276,-18420
9.280,-18379
9.284,-18379
9.288,-18379
9.292,-18379
9.296,-18379
9.300,-18379
9.304,-18379
9.308,-18379
9.312,-18379
9.316,-18379
9.320,-18377
9.324,-18377
9.328,-18377
9.332,-18377
9.336,-18377
9.340,-18377
9.344,-18377
9.348,-18377
9.352,-18377
9.356,-18377
9.360,-18386
9.364,-18386
9.368,-18386
9.372,-18386
9.376,-18386
9.380,-18386
9.384,-18386
9.388,-18386
9.392,-18386
9.396,-18424
9.400,-18424
9.404,-18424
9.408,-18424
9.412,-18424
9.416,-18424
9.420,-18424
9.424,-18424
9.428,-18424
9.432,-18424
9.436,-18465
9.440,-18465
9.444,-18465
9.448,-18465
9.452,-18465
9.456,-18465
9.460,-18465
9.464,-18465
9.468,-18465
9.472,-18508
9.476,-18508
9.480,-18508
9.484,-18508
9.488,-18508
9.492,-18508
9.496,-18508
9.500,-18508
9.504,-18508
9.508,-18508
9.512,-18555
9.516,-18555
9.520,-18555
9.524,-18555
9.528,-18555
9.532,-18555
9.536,-18555
9.540,-18555
9.544,-18555
9.548,-18594
9.552,-18594
9.556,-18594
9.560,-18594
9.564,-18594
9.568,-18594
9.572,-18594
9.576,-18594
9.580,-18594
9.584,-18594
9.588,-18663
9.592,-18663
9.596,-18663
9.600,-18663
9.604,-18663
9.608,-18663
9.612,-18663
9.616,-18663
9.620,-18663
9.624,-18710
9.628,-18710
9.632,-18710
9.636,-18710
9.640,-18710
9.644,-18710
9.648,-18710
9.652,-18710
9.656,-18710
9.660,-18710
9.664,-18775
9.668,-18775
9.672,-18775
9.676,-18775
9.680,-18775
9.684,-18775
9.688,-18775
9.692,-18775
9.696,-18775
9.700,-18827
9.704,-18827
9.708,-18827
9.712,-18827
9.716,-18827
9.720,-18827
9.724,-18827
9.728,-18827
9.732,-18827
9.736,-18827
9.740,-18905
9.744,-18905
9.748,-18905
9.752,-18905
9.756,-18905
9.760,-18905
9.764,-18905
9.768,-18905
9.772,-18905
9.776,-18915
9.780,-18915
9.784,-18915
9.788,-18915
9.792,-18915
9.796,-18915
9.800,-18915
9.804,-18915
9.808,-18915
9.812,-18915
9.816,-18924
9.820,-18924
9.824,-18924
9.828,-18924
9.832,-18924
9.836,-18924
9.840,-18924
9.844,-18924
9.848,-18924
9.852,-18947
9.856,-18947
9.860,-18947
9.864,-18947
9.868,-18947
9.872,-18947
9.876,-18947
9.880,-18947
9.884,-18947
9.888,-18947
9.892,-18973
9.896,-18973
9.900,-18973
9.904,-18973
9.908,-18973
9.912,-18973
9.916,-18973
9.920,-18973
9.924,-18973
9.928,-18986
9.932,-18986
9.936,-18986
9.940,-18986
9.944,-18986
9.948,-18986
9.952,-18986
9.956,-18986
9.960,-18986
9.964,-18986
9.968,-18998
9.972,-18998
9.976,-18998
9.980,-18998
9.984,-18998
9.988,-18998
9.992,-18998
9.996,-18998
10.000,-18998
10.004,-18962
10.008,-18962
10.012,-18962
10.016,-18962
10.020,-18962
10.024,-18962
10.028,-18962
10.032,-18962
10.036,-18962
10.040,-18962
10.044,-18986
10.048,-18986
10.052,-18986
10.056,-18986
10.060,-18986
10.064,-18986
10.068,-18986
10.072,-18986
10.076,-18986
10.080,-19012
10.084,-19012
10.088,-19012
10.092,-19012
10.096,-19012
10.100,-19012
10.104,-19012
10.108,-19012
10.112,-19012
10.116,-19012
10.120,-19053
10.124,-19053
10.128,-19053
10.132,-19053
10.136,-19053
10.140,-19053
10.144,-19053
10.148,-19053
10.152,-19053
10.156,-19053
10.160,-19065
10.164,-19065
10.168,-19065
10.172,-19065
10.176,-19065
10.180,-19065
10.184,-19065
10.188,-19065
10.192,-19065
10.196,-19125
10.200,-19125
10.204,-19125
10.208,-19125
10.212,-19125
10.216,-19125
10.220,-19125
10.224,-19125
10.228,-19125
10.232,-19125
10.236,-19141
10.240,-19141
10.244,-19141
10.248,-19141
10.252,-19141
10.256,-19141
10.260,-19141
10.264,-19141
10.268,-19141
10.272,-19185
10.276,-19185
10.280,-19185
10.284,-19185
10.288,-19185
10.292,-19185
10.296,-19185
10.300,-19185
10.304,-19185
10.308,-19185
10.312,-19229
10.316,-19229
10.320,-19229
10.324,-19229
10.328,-19229
10.332,-19229
10.336,-19229
10.340,-19229
10.344,-19229
10.348,-19229
10.352,-19228
10.356,-19228
10.360,-19228
10.364,-19228
10.368,-19228
10.372,-19228
10.376,-19228
10.380,-19228
10.384,-19228
10.388,-19228
10.392,-19218
10.396,-19218
10.400,-19218
10.404,-19218
10.408,-19218
10.412,-19218
10.416,-19218
10.420,-19218
10.424,-19218
10.428,-19203
10.432,-19203
10.436,-19203
10.440,-19203
10.444,-19203
10.448,-19203
10.452,-19203
10.456,-19203
10.460,-19203
10.464,-19203
10.468,-19227
10.472,-19227
10.476,-19227
10.480,-19227
10.484,-19227
10.488,-19227
10.492,-19227
10.496,-19227
10.500,-19227
10.504,-19174
10.508,-19174
10.512,-19174
10.516,-19174
10.520,-19174
10.524,-19174
10.528,-19174
10.532,-19174
10.536,-19174
10.540,-19174
10.544,-19167
10.548,-19167
10.552,-19167
10.556,-19167
10.560,-19167
10.564,-19167
10.568,-19167
10.572,-19167
10.576,-19167
10.580,-19177
10.584,-19177
10.588,-19177
10.592,-19177
10.596,-19177
10.600,-19177
10.604,-19177
10.608,-19177
10.612,-19177
10.616,-19177
10.620,-19173
10.624,-19173
10.628,-19173
10.632,-19173
10.636,-19173
10.640,-19173
10.644,-19173
10.648,-19173
10.652,-19173
10.656,-19184
10.660,-19184
10.664,-19184
10.668,-19184
10.672,-19184
10.676,-19184
10.680,-19184
10.684,-19184
10.688,-19184
10.692,-19184
10.696,-19202
10.700,-19202
10.704,-19202
10.708,-19202
10.712,-19202
10.716,-19202
10.720,-19202
10.724,-19202
10.728,-19202
10.732,-19225
10.736,-19225
10.740,-19225
10.744,-19225
10.748,-19225
10.752,-19225
10.756,-19225
10.760,-19225
10.764,-19225
10.768,-19225
10.772,-19213
10.776,-19213
10.780,-19213
10.784,-19213
10.788,-19213
10.792,-19213
10.796,-19213
10.800,-19213
10.804,-19213
10.808,-19193
10.812,-19193
10.816,-19193
10.820,-19193
10.824,-19193
10.828,-19193
10.832,-19193
10.836,-19193
10.840,-19193
10.844,-19193
10.848,-19234
10.852,-19234
10.856,-19234
10.860,-19234
10.864,-19234
10.868,-19234
10.872,-19234
10.876,-19234
10.880,-19234
10.884,-19192
10.888,-19192
10.892,-19192
10.896,-19192
10.900,-19192
10.904,-19192
10.908,-19192
10.912,-19192
10.916,-19192
10.920,-19192
10.924,-19189
10.928,-19189
10.932,-19189
10.936,-19189
10.940,-19189
10.944,-19189
10.948,-19189
10.952,-19189
10.956,-19189
10.960,-19177
10.964,-19177
10.968,-19177
10.972,-19177
10.976,-19177
10.980,-19177
10.984,-19177
10.988,-19177
10.992,-19177
10.996,-19207
11.000,-19207
11.004,-19207
11.008,-19207
11.012,-19207
11.016,-19207
11.020,-19207
11.024,-19207
11.028,-19207
11.032,-19207
11.036,-19174
11.040,-19174
11.044,-19174
11.048,-19174
11.052,-19174
11.056,-19174
11.060,-19174
11.064,-19174
11.068,-19174
11.072,-19208
11.076,-19208
11.080,-19208
11.084,-19208
11.088,-19208
11.092,-19208
11.096,-19208
11.100,-19208
11.104,-19208
11.108,-19208
11.112,-19189
11.116,-19189
11.120,-19189
11.124,-19189
11.128,-19189
11.132,-19189
11.136,-19189
11.140,-19189
11.144,-19189
11.148,-19203
11.152,-19203
11.156,-19203
11.160,-19203
11.164,-19203
11.168,-19203
11.172,-19203
11.176,-19203
11.180,-19203
11.184,-19203
11.188,-19195
11.192,-19195
11.196,-19195
11.200,-19195
11.204,-19195
11.208,-19195
11.212,-19195
11.216,-19195
11.220,-19195
11.224,-19172
11.228,-19172
11.232,-19172
11.236,-19172
11.240,-19172
11.244,-19172
11.248,-19172
11.252,-19172
11.256,-19172
11.260,-19172
11.264,-19154
11.268,-19154
11.272,-19154
11.276,-19154
11.280,-19154
11.284,-19154
11.288,-19154
11.292,-19154
11.296,-19154
11.300,-19140
11.304,-19140
11.308,-19140
11.312,-19140
11.316,-19140
11.320,-19140
11.324,-19140
11.328,-19140
11.332,-19140
11.336,-19140
11.340,-19125
11.344,-19125
11.348,-19125
11.352,-19125
11.356,-19125
11.360,-19125
11.364,-19125
11.368,-19125
11.372,-19125
11.376,-19091
11.380,-19091
11.384,-19091
11.388,-19091
11.392,-19091
11.396,-19091
11.400,-19091
11.404,-19091
11.408,-19091
11.412,-19091
11.416,-19091
11.420,-19088
11.424,-19088
11.428,-19088
11.432,-19088
11.436,-19088
11.440,-19088
11.444,-19088
11.448,-19088
11.452,-19061
11.456,-19061
11.460,-19061
11.464,-19061
11.468,-19061
11.472,-19061
11.476,-19061
11.480,-19061
11.484,-19061
11.488,-19061
11.492,-19061
11.496,-19060
11.500,-19060
11.504,-19060
11.508,-19060
11.512,-19060
11.516,-19060
11.520,-19060
11.524,-19060
11.528,-19060
11.532,-19044
11.536,-19044
11.540,-19044
11.544,-19044
11.548,-19044
11.552,-19044
11.556,-19044
11.560,-19044
11.564,-19044
11.568,-19044
11.572,-19051
11.576,-19051
11.580,-19051
11.584,-19051
11.588,-19051
11.592,-19051
11.596,-19051
11.600,-19051
11.604,-19051
11.608,-19039
11.612,-19039
11.616,-19039
11.620,-19039
11.624,-19039
11.628,-19039
11.632,-19039
11.636,-19039
11.640,-19039
11.644,-19039
11.648,-19043
11.652,-19043
11.656,-19043
11.660,-19043
11.664,-19043
11.668,-19043
11.672,-19043
11.676,-19043
11.680,-19043
11.684,-19037
11.688,-19037
11.692,-19037
11.696,-19037
11.700,-19037
11.704,-19037
11.708,-19037
11.712,-19037
11.716,-19037
11.720,-19037
11.724,-19062
11.728,-19062
11.732,-19062
11.736,-19062
11.740,-19062
11.744,-19062
11.748,-19062
11.752,-19062
11.756,-19062
11.760,-18991
11.764,-18991
11.768,-18991
11.772,-18991
11.776,-18991
11.780,-18991
11.784,-18991
11.788,-18991
11.792,-18991
11.796,-18979
11.800,-18979
11.804,-18979
11.808,-18979
11.812,-18979
11.816,-18979
11.820,-18979
11.824,-18979
11.828,-18979
11.832,-18979
11.836,-18970
11.840,-18970
11.844,-18970
11.848,-18970
11.852,-18970
11.856,-18970
11.860,-18970
11.864,-18970
11.868,-18970
11.872,-18973
11.876,-18973
11.880,-18973
11.884,-18973
11.888,-18973
11.892,-18973
11.896,-18973
11.900,-18973
11.904,-18973
11.908,-18973
11.912,-18968
11.916,-18968
11.920,-18968
11.924,-18968
11.928,-18968
11.932,-18968
11.936,-18968
11.940,-18968
11.944,-18968
11.948,-18977
11.952,-18977
11.956,-18977
11.960,-18977
11.964,-18977
11.968,-18977
11.972,-18977
11.976,-18977
11.980,-18977
11.984,-18977
11.988,-18977
11.992,-18977
11.996,-18977
12.000,-18977
12.004,-18977
12.008,-18977
12.012,-18977
12.016,-18977
12.020,-18977
12.024,-18991
12.028,-18991
12.032,-18991
12.036,-18991
12.040,-18991
12.044,-18991
12.048,-18991
12.052,-18991
12.056,-18991
12.060,-18991
12.064,-18978
12.068,-18978
12.072,-18978
12.076,-18978
12.080,-18978
12.084,-18978
12.088,-18978
12.092,-18978
12.096,-18978
12.100,-18989
12.104,-18989
12.108,-18989
12.112,-18989
12.116,-18989
12.120,-18989
12.124,-18989
12.128,-18989
12.132,-18989
12.136,-18989
12.140,-18946
12.144,-18946
12.148,-18946
12.152,-18946
12.156,-18946
12.160,-18946
12.164,-18946
12.168,-18946
12.172,-18946
12.176,-18964
12.180,-18964
12.184,-18964
12.188,-18964
12.192,-18964
12.196,-18964
12.200,-18964
12.204,-18964
12.208,-18964
12.212,-18964
12.216,-18938
12.220,-18938
12.224,-18938
12.228,-18938
12.232,-18938
12.236,-18938
12.240,-18938
12.244,-18938
12.248,-18938
12.252,-18924
12.256,-18924
12.260,-18924
12.264,-18924
12.268,-18924
12.272,-18924
12.276,-18924
12.280,-18924
12.284,-18924
12.288,-18924
12.292,-18912
12.296,-18912
12.300,-18912
12.304,-18912
12.308,-18912
12.312,-18912
12.316,-18912
12.320,-18912
12.324,-18912
12.328,-18894
12.332,-18894
12.336,-18894
12.340,-18894
12.344,-18894
12.348,-18894
12.352,-18894
12.356,-18894
12.360,-18894
12.364,-18894
12.368,-18887
12.372,-18887
12.376,-18887
12.380,-18887
12.384,-18887
12.388,-18887
12.392,-18887
12.396,-18887
12.400,-18887
12.404,-18877
12.408,-18877
12.412,-18877
12.416,-18877
12.420,-18877
12.424,-18877
12.428,-18877
12.432,-18877
12.436,-18877
12.440,-18877
12.444,-18865
12.448,-18865
12.452,-18865
12.456,-18865
12.460,-18865
12.464,-18865
12.468,-18865
12.472,-18865
12.476,-18865
12.480,-18851
12.484,-18851
12.488,-18851
12.492,-18851
12.496,-18851
12.500,-18851
12.504,-18851
12.508,-18851
12.512,-18851
12.516,-18851
12.520,-18851
12.524,-18846
12.528,-18846
12.532,-18846
12.536,-18846
12.540,-18846
12.544,-18846
12.548,-18846
12.552,-18846
12.556,-18846
12.560,-18862
12.564,-18862
12.568,-18862
12.572,-18862
12.576,-18862
12.580,-18862
12.584,-18862
12.588,-18862
12.592,-18862
12.596,-18862
12.600,-18857
12.604,-18857
12.608,-18857
12.612,-18857
12.616,-18857
12.620,-18857
12.624,-18857
12.628,-18857
12.632,-18857
12.636,-18857
12.640,-18856
12.644,-18856
12.648,-18856
12.652,-18856
12.656,-18856
12.660,-18856
12.664,-18856
12.668,-18856
12.672,-18856
12.676,-18873
12.680,-18873
12.684,-18873
12.688,-18873
12.692,-18873
12.696,-18873
12.700,-18873
12.704,-18873
12.708,-18873
12.712,-18873
12.716,-18911
12.720,-18911
12.724,-18911
12.728,-18911
12.732,-18911
12.736,-18911
12.740,-18911
12.744,-18911
12.748,-18911
12.752,-18946
12.756,-18946
12.760,-18946
12.764,-18946
12.768,-18946
12.772,-18946
12.776,-18946
12.780,-18946
12.784,-18946
12.788,-18946
12.792,-19000
12.796,-19000
12.800,-19000
12.804,-19000
12.808,-19000
12.812,-19000
12.816,-19000
12.820,-19000
12.824,-19000
12.828,-19098
12.832,-19098
12.836,-19098
12.840,-19098
12.844,-19098
12.848,-19098
12.852,-19098
12.856,-19098
12.860,-19098
12.864,-19098
12.868,-19172
12.872,-19172
12.876,-19172
12.880,-19172
12.884,-19172
12.888,-19172
12.892,-19172
12.896,-19172
12.900,-19172
12.904,-19254
12.908,-19254
12.912,-19254
12.916,-19254
12.920,-19254
12.924,-19254
12.928,-19254
12.932,-19254
12.936,-19254
12.940,-19254
12.944,-19284
12.948,-19284
12.952,-19284
12.956,-19284
12.960,-19284
12.964,-19284
12.968,-19284
12.972,-19284
12.976,-19284
12.980,-19288
12.984,-19288
12.988,-19288
12.992,-19288
12.996,-19288
13.000,-19288
13.004,-19288
13.008,-19288
13.012,-19288
13.016,-19288
13.020,-19359
13.024,-19359
13.028,-19359
13.032,-19359
13.036,-19359
13.040,-19359
13.044,-19359
13.048,-19359
13.052,-19359
13.056,-19343
13.060,-19343
13.064,-19343
13.068,-19343
13.072,-19343
13.076,-19343
13.080,-19343
13.084,-19343
13.088,-19343
13.092,-19343
13.096,-19370
13.100,-19370
13.104,-19370
13.108,-19370
13.112,-19370
13.116,-19370
13.120,-19370
13.124,-19370
13.128,-19370
13.132,-19345
13.136,-19345
13.140,-19345
13.144,-19345
13.148,-19345
13.152,-19345
13.156,-19345
13.160,-19345
13.164,-19345
13.168,-19345
13.172,-19410
13.176,-19410
13.180,-19410
13.184,-19410
13.188,-19410
13.192,-19410
13.196,-19410
13.200,-19410
13.204,-19410
13.208,-19392
13.212,-19392
13.216,-19392
13.220,-19392
13.224,-19392
13.228,-19392
13.232,-19392
13.236,-19392
13.240,-19392
13.244,-19392
13.248,-19424
13.252,-19424
13.256,-19424
13.260,-19424
13.264,-19424
13.268,-19424
13.272,-19424
13.276,-19424
13.280,-19424
13.284,-19433
13.288,-19433
13.292,-19433
13.296,-19433
13.300,-19433
13.304,-19433
13.308,-19433
13.312,-19433
13.316,-19433
13.320,-19433
13.324,-19458
13.328,-19458
13.332,-19458
13.336,-19458
13.340,-19458
13.344,-19458
13.348,-19458
13.352,-19458
13.356,-19458
13.360,-19504
13.364,-19504
13.368,-19504
13.372,-19504
13.376,-19504
13.380,-19504
13.384,-19504
13.388,-19504
13.392,-19504
13.396,-19504
13.400,-19557
13.404,-19557
13.408,-19557
13.412,-19557
13.416,-19557
13.420,-19557
13.424,-19557
13.428,-19557
13.432,-19557
13.436,-19557
13.440,-19572
13.444,-19572
13.448,-19572
13.452,-19572
13.456,-19572
13.460,-19572
13.464,-19572
13.468,-19572
13.472,-19572
13.476,-19567
13.480,-19567
13.484,-19567
13.488,-19567
13.492,-19567
13.496,-19567
13.500,-19567
13.504,-19567
13.508,-19567
13.512,-19567
13.516,-19545
13.520,-19545
13.524,-19545
13.528,-19545
13.532,-19545
13.536,-19545
13.540,-19545
13.544,-19545
13.548,-19545
13.552,-19565
13.556,-19565
13.560,-19565
13.564,-19565
13.568,-19565
13.572,-19565
13.576,-19565
13.580,-19565
13.584,-19565
13.588,-19565
13.592,-19565
13.596,-19558
13.600,-19558
13.604,-19558
13.608,-19558
13.612,-19558
13.616,-19558
13.620,-19558
13.624,-19558
13.628,-19558
13.632,-19568
13.636,-19568
13.640,-19568
13.644,-19568
13.648,-19568
13.652,-19568
13.656,-19568
13.660,-19568
13.664,-19568
13.668,-19568
13.672,-19542
13.676,-19542
13.680,-19542
13.684,-19542
13.688,-19542
13.692,-19542
13.696,-19542
13.700,-19542
13.704,-19542
13.708,-19530
13.712,-19530
13.716,-19530
13.720,-19530
13.724,-19530
13.728,-19530
13.732,-19530
13.736,-19530
13.740,-19530
13.744,-19530
13.748,-19496
13.752,-19496
13.756,-19496
13.760,-19496
13.764,-19496
13.768,-19496
13.772,-19496
13.776,-19496
13.780,-19496
13.784,-19462
13.788,-19462
13.792,-19462
13.796,-19462
13.800,-19462
13.804,-19462
13.808,-19462
13.812,-19462
13.816,-19462
13.820,-19462
13.824,-19441
13.828,-19441
13.832,-19441
13.836,-19441
13.840,-19441
13.844,-19441
13.848,-19441
13.852,-19441
13.856,-19441
13.860,-19447
13.864,-19447
13.868,-19447
13.872,-19447
13.876,-19447
13.880,-19447
13.884,-19447
13.888,-19447
13.892,-19447
13.896,-19447
13.900,-19428
13.904,-19428
13.908,-19428
13.912,-19428
13.916,-19428
13.920,-19428
13.924,-19428
13.928,-19428
13.932,-19428
13.936,-19447
13.940,-19447
13.944,-19447
13.948,-19447
13.952,-19447
13.956,-19447
13.960,-19447
13.964,-19447
13.968,-19447
13.972,-19447
13.976,-19445
13.980,-19445
13.984,-19445
13.988,-19445
13.992,-19445
13.996,-19445
14.000,-19445
14.004,-19445
14.008,-19445
14.012,-19468
14.016,-19468
14.020,-19468
14.024,-19468
14.028,-19468
14.032,-19468
14.036,-19468
14.040,-19468
14.044,-19468
14.048,-19468
14.052,-19423
14.056,-19423
14.060,-19423
14.064,-19423
14.068,-19423
14.072,-19423
14.076,-19423
14.080,-19423
14.084,-19423
14.088,-19389
14.092,-19389
14.096,-19389
14.100,-19389
14.104,-19389
14.108,-19389
14.112,-19389
14.116,-19389
14.120,-19389
14.124,-19389
14.128,-19374
14.132,-19374
14.136,-19374
14.140,-19374
14.144,-19374
14.148,-19374
14.152,-19374
14.156,-19374
14.160,-19374
14.164,-19361
14.168,-19361
14.172,-19361
14.176,-19361
14.180,-19361
14.184,-19361
14.188,-19361
14.192,-19361
14.196,-19361
14.200,-19361
14.204,-19339
14.208,-19339
14.212,-19339
14.216,-19339
14.220,-19339
14.224,-19339
14.228,-19339
14.232,-19339
14.236,-19339
14.240,-19357
14.244,-19357
14.248,-19357
14.252,-19357
14.256,-19357
14.260,-19357
14.264,-19357
14.268,-19357
14.272,-19357
14.276,-19357
14.280,-19355
14.284,-19355
14.288,-19355
14.292,-19355
14.296,-19355
14.300,-19355
14.304,-19355
14.308,-19355
14.312,-19355
14.316,-19355
14.320,-19333
14.324,-19333
14.328,-19333
14.332,-19333
14.336,-19333
14.340,-19333
14.344,-19333
14.348,-19333
14.352,-19333
14.356,-19305
14.360,-19305
14.364,-19305
14.368,-19305
14.372,-19305
14.376,-19305
14.380,-19305
14.384,-19305
14.388,-19305
14.392,-19305
14.396,-19270
14.400,-19270
14.404,-19270
14.408,-19270
14.412,-19270
14.416,-19270
14.420,-19270
14.424,-19270
14.428,-19270
14.432,-19238
14.436,-19238
14.440,-19238
14.444,-19238
14.448,-19238
14.452,-19238
14.456,-19238
14.460,-19238
14.464,-19238
14.468,-19238
14.472,-19214
14.476,-19214
14.480,-19214
14.484,-19214
14.488,-19214
14.492,-19214
14.496,-19214
14.500,-19214
14.504,-19214
14.508,-19179
14.512,-19179
14.516,-19179
14.520,-19179
14.524,-19179
14.528,-19179
14.532,-19179
14.536,-19179
14.540,-19179
14.544,-19179
14.548,-19150
14.552,-19150
14.556,-19150
14.560,-19150
14.564,-19150
14.568,-19150
14.572,-19150
14.576,-19150
14.580,-19150
14.584,-19124
14.588,-19124
14.592,-19124
14.596,-19124
14.600,-19124
14.604,-19124
14.608,-19124
14.612,-19124
14.616,-19124
14.620,-19124
14.624,-19118
14.628,-19118
14.632,-19118
14.636,-19118
14.640,-19118
14.644,-19118
14.648,-19118
14.652,-19118
14.656,-19118
14.660,-19118
14.664,-19075
14.668,-19075
14.672,-19075
14.676,-19075
14.680,-19075
14.684,-19075
14.688,-19075
14.692,-19075
14.696,-19075
14.700,-19075
14.704,-19042
14.708,-19042
14.712,-19042
14.716,-19042
14.720,-19042
14.724,-19042
14.728,-19042
14.732,-19042
14.736,-19042
14.740,-18993
14.744,-18993
14.748,-18993
14.752,-18993
14.756,-18993
14.760,-18993
14.764,-18993
14.768,-18993
14.772,-18993
14.776,-18993
14.780,-18968
14.784,-18968
14.788,-18968
14.792,-18968
14.796,-18968
14.800,-18968
14.804,-18968
14.808,-18968
14.812,-18968
14.816,-18943
14.820,-18943
14.824,-18943
14.828,-18943
14.832,-18943
14.836,-18943
14.840,-18943
14.844,-18943
14.848,-18943
14.852,-18943
14.856,-18916
14.860,-18916
14.864,-18916
14.868,-18916
14.872,-18916
14.876,-18916
14.880,-18916
14.884,-18916
14.888,-18916
14.892,-18884
14.896,-18884
14.900,-18884
14.904,-18884
14.908,-18884
14.912,-18884
14.916,-18884
14.920,-18884
14.924,-18884
14.928,-18884
14.932,-18861
14.936,-18861
14.940,-18861
14.944,-18861
14.948,-18861
14.952,-18861
14.956,-18861
14.960,-18861
14.964,-18861
14.968,-18844
14.972,-18844
14.976,-18844
14.980,-18844
14.984,-18844
14.988,-18844
14.992,-18844
14.996,-18844
15.000,-18844
15.004,-18844
15.008,-18829
15.012,-18829
15.016,-18829
15.020,-18829
15.024,-18829
15.028,-18829
15.032,-18829
15.036,-18829
15.040,-18829
15.044,-18791
15.048,-18791
15.052,-18791
15.056,-18791
15.060,-18791
15.064,-18791
15.068,-18791
15.072,-18791
15.076,-18791
15.080,-18791
15.084,-18779
15.088,-18779
15.092,-18779
15.096,-18779
15.100,-18779
15.104,-18779
15.108,-18779
15.112,-18779
15.116,-18779
15.120,-18749
15.124,-18749
15.128,-18749
15.132,-18749
15.136,-18749
15.140,-18749
15.144,-18749
15.148,-18749
15.152,-18749
15.156,-18749
15.160,-18756
15.164,-18756
15.168,-18756
15.172,-18756
15.176,-18756
15.180,-18756
15.184,-18756
15.188,-18756
15.192,-18756
15.196,-18756
15.200,-18725
15.204,-18725
15.208,-18725
15.212,-18725
15.216,-18725
15.220,-18725
15.224,-18725
15.228,-18725
15.232,-18725
15.236,-18712
15.240,-18712
15.244,-18712
15.248,-18712
15.252,-18712
15.256,-18712
15.260,-18712
15.264,-18712
15.268,-18712
15.272,-18712
15.276,-18687
15.280,-18687
15.284,-18687
15.288,-18687
15.292,-18687
15.296,-18687
15.300,-18687
15.304,-18687
15.308,-18687
15.312,-18686
15.316,-18686
15.320,-18686
15.324,-18686
15.328,-18686
15.332,-18686
15.336,-18686
15.340,-18686
15.344,-18686
15.348,-18686
15.352,-18714
15.356,-18714
15.360,-18714
15.364,-18714
15.368,-18714
15.372,-18714
15.376,-18714
15.380,-18714
15.384,-18714
15.388,-18710
15.392,-18710
15.396,-18710
15.400,-18710
15.404,-18710
15.408,-18710
15.412,-18710
15.416,-18710
15.420,-18710
15.424,-18710
15.428,-18706
15.432,-18706
15.436,-18706
15.440,-18706
15.444,-18706
15.448,-18706
15.452,-18706
15.456,-18706
15.460,-18706
15.464,-18700
15.468,-18700
15.472,-18700
15.476,-18700
15.480,-18700
15.484,-18700
15.488,-18700
15.492,-18700
15.496,-18700
15.500,-18700
15.504,-18698
15.508,-18698
15.512,-18698
15.516,-18698
15.520,-18698
15.524,-18698
15.528,-18698
15.532,-18698
15.536,-18698
15.540,-18699
15.544,-18699
15.548,-18699
15.552,-18699
15.556,-18699
15.560,-18699
15.564,-18699
15.568,-18699
15.572,-18699
15.576,-18699
15.580,-18686
15.584,-18686
15.588,-18686
15.592,-18686
15.596,-18686
15.600,-18686
15.604,-18686
15.608,-18686
15.612,-18686
15.616,-18686
15.620,-18686
15.624,-18686
15.628,-18686
15.632,-18686
15.636,-18686
15.640,-18686
15.644,-18686
15.648,-18686
15.652,-18686
15.656,-18685
15.660,-18685
15.664,-18685
15.668,-18685
15.672,-18685
15.676,-18685
15.680,-18685
15.684,-18685
15.688,-18685
15.692,-18685
15.696,-18685
15.700,-18685
15.704,-18685
15.708,-18685
15.712,-18685
15.716,-18685
15.720,-18685
15.724,-18685
15.728,-18685
15.732,-18685
15.736,-18662
15.740,-18662
15.744,-18662
15.748,-18662
15.752,-18662
15.756,-18662
15.760,-18662
15.764,-18662
15.768,-18662
15.772,-18643
15.776,-18643
15.780,-18643
15.784,-18643
15.788,-18643
15.792,-18643
15.796,-18643
15.800,-18643
15.804,-18643
15.808,-18643
15.812,-18596
15.816,-18596
15.820,-18596
15.824,-18596
15.828,-18596
15.832,-18596
15.836,-18596
15.840,-18596
15.844,-18596
15.848,-18543
15.852,-18543
15.856,-18543
15.860,-18543
15.864,-18543
15.868,-18543
15.872,-18543
15.876,-18543
15.880,-18543
15.884,-18543
15.888,-18512
15.892,-18512
15.896,-18512
15.900,-18512
15.904,-18512
15.908,-18512
15.912,-18512
15.916,-18512
15.920,-18512
15.924,-18482
15.928,-18482
15.932,-18482
15.936,-18482
15.940,-18482
15.944,-18482
15.948,-18482
15.952,-18482
15.956,-18482
15.960,-18482
15.964,-18480
15.968,-18480
15.972,-18480
15.976,-18480
15.980,-18480
15.984,-18480
15.988,-18480
15.992,-18480
15.996,-18480
16.000,-18468
16.004,-18468
16.008,-18468
16.012,-18468
16.016,-18468
16.020,-18468
16.024,-18468
16.028,-18468
16.032,-18468
16.036,-18468
16.040,-18440
16.044,-18440
16.048,-18440
16.052,-18440
16.056,-18440
16.060,-18440
16.064,-18440
16.068,-18440
16.072,-18440
16.076,-18440
16.080,-18460
16.084,-18460
16.088,-18460
16.092,-18460
16.096,-18460
16.100,-18460
16.104,-18460
16.108,-18460
16.112,-18460
16.116,-18453
16.120,-18453
16.124,-18453
16.128,-18453
16.132,-18453
16.136,-18453
16.140,-18453
16.144,-18453
16.148,-18453
16.152,-18453
16.156,-18517
16.160,-18517
16.164,-18517
16.168,-18517
16.172,-18517
16.176,-18517
16.180,-18517
16.184,-18517
16.188,-18517
16.192,-18546
16.196,-18546
16.200,-18546
16.204,-18546
16.208,-18546
16.212,-18546
16.216,-18546
16.220,-18546
16.224,-18546
16.228,-18546
16.232,-18611
16.236,-18611
16.240,-18611
16.244,-18611
16.248,-18611
16.252,-18611
16.256,-18611
16.260,-18611
16.264,-18611
16.268,-18636
16.272,-18636
16.276,-18636
16.280,-18636
16.284,-18636
16.288,-18636
16.292,-18636
16.296,-18636
16.300,-18636
16.304,-18636
16.308,-18703
16.312,-18703
16.316,-18703
16.320,-18703
16.324,-18703
16.328,-18703
16.332,-18703
16.336,-18703
16.340,-18703
16.344,-18746
16.348,-18746
16.352,-18746
16.356,-18746
16.360,-18746
16.364,-18746
16.368,-18746
16.372,-18746
16.376,-18746
16.380,-18746
16.384,-18797
16.388,-18797
16.392,-18797
16.396,-18797
16.400,-18797
16.404,-18797
16.408,-18797
16.412,-18797
16.416,-18797
16.420,-18829
16.424,-18829
16.428,-18829
16.432,-18829
16.436,-18829
16.440,-18829
16.444,-18829
16.448,-18829
16.452,-18829
16.456,-18829
16.460,-18874
16.464,-18874
16.468,-18874
16.472,-18874
16.476,-18874
16.480,-18874
16.484,-18874
16.488,-18874
16.492,-18874
16.496,-18876
16.500,-18876
16.504,-18876
16.508,-18876
16.512,-18876
16.516,-18876
16.520,-18876
16.524,-18876
16.528,-18876
16.532,-18876
16.536,-18884
16.540,-18884
16.544,-18884
16.548,-18884
16.552,-18884
16.556,-18884
16.560,-18884
16.564,-18884
16.568,-18884
16.572,-18899
16.576,-18899
16.580,-18899
16.584,-18899
16.588,-18899
16.592,-18899
16.596,-18899
16.600,-18899
16.604,-18899
16.608,-18899
16.612,-18945
16.616,-18945
16.620,-18945
16.624,-18945
16.628,-18945
16.632,-18945
16.636,-18945
16.640,-18945
16.644,-18945
16.648,-18975
16.652,-18975
16.656,-18975
16.660,-18975
16.664,-18975
16.668,-18975
16.672,-18975
16.676,-18975
16.680,-18975
16.684,-18975
16.688,-19022
16.692,-19022
16.696,-19022
16.700,-19022
16.704,-19022
16.708,-19022
16.712,-19022
16.716,-19022
16.720,-19022
16.724,-19037
16.728,-19037
16.732,-19037
16.736,-19037
16.740,-19037
16.744,-19037
16.748,-19037
16.752,-19037
16.756,-19037
16.760,-19037
16.764,-19037
16.768,-19073
16.772,-19073
16.776,-19073
16.780,-19073
16.784,-19073
16.788,-19073
16.792,-19073
16.796,-19073
16.800,-19114
16.804,-19114
16.808,-19114
16.812,-19114
16.816,-19114
16.820,-19114
16.824,-19114
16.828,-19114
16.832,-19114
16.836,-19114
16.840,-19114
16.844,-19130
16.848,-19130
16.852,-19130
16.856,-19130
16.860,-19130
16.864,-19130
16.868,-19130
16.872,-19130
16.876,-19130
16.880,-19137
16.884,-19137
16.888,-19137
16.892,-19137
16.896,-19137
16.900,-19137
16.904,-19137
16.908,-19137
16.912,-19137
16.916,-19137
16.920,-19130
16.924,-19130
16.928,-19130
16.932,-19130
16.936,-19130
16.940,-19130
16.944,-19130
16.948,-19130
16.952,-19130
16.956,-19130
16.960,-19147
16.964,-19147
16.968,-19147
16.972,-19147
16.976,-19147
16.980,-19147
16.984,-19147
16.988,-19147
16.992,-19147
16.996,-19150
17.000,-19150
17.004,-19150
17.008,-19150
17.012,-19150
17.016,-19150
17.020,-19150
17.024,-19150
17.028,-19150
17.032,-19150
17.036,-19143
17.040,-19143
17.044,-19143
17.048,-19143
17.052,-19143
17.056,-19143
17.060,-19143
17.064,-19143
17.068,-19143
17.072,-19153
17.076,-19153
17.080,-19153
17.084,-19153
17.088,-19153
17.092,-19153
17.096,-19153
17.100,-19153
17.104,-19153
17.108,-19153
17.112,-19142
17.116,-19142
17.120,-19142
17.124,-19142
17.128,-19142
17.132,-19142
17.136,-19142
17.140,-19142
17.144,-19142
17.148,-19135
17.152,-19135
17.156,-19135
17.160,-19135
17.164,-19135
17.168,-19135
17.172,-19135
17.176,-19135
17.180,-19135
17.184,-19135
17.188,-19145
17.192,-19145
17.196,-19145
17.200,-19145
17.204,-19145
17.208,-19145
17.212,-19145
17.216,-19145
17.220,-19145
17.224,-19108
17.228,-19108
17.232,-19108
17.236,-19108
17.240,-19108
17.244,-19108
17.248,-19108
17.252,-19108
17.256,-19108
17.260,-19108
17.264,-19095
17.268,-19095
17.272,-19095
17.276,-19095
17.280,-19095
17.284,-19095
17.288,-19095
17.292,-19095
17.296,-19095
17.300,-19080
17.304,-19080
17.308,-19080
17.312,-19080
17.316,-19080
17.320,-19080
17.324,-19080
17.328,-19080
17.332,-19080
17.336,-19080
17.340,-19096
17.344,-19096
17.348,-19096
17.352,-19096
17.356,-19096
17.360,-19096
17.364,-19096
17.368,-19096
17.372,-19096
17.376,-19118
17.380,-19118
17.384,-19118
17.388,-19118
17.392,-19118
17.396,-19118
17.400,-19118
17.404,-19118
17.408,-19118
17.412,-19118
17.416,-19136
17.420,-19136
17.424,-19136
17.428,-19136
17.432,-19136
17.436,-19136
17.440,-19136
17.444,-19136
17.448,-19136
17.452,-19146
17.456,-19146
17.460,-19146
17.464,-19146
17.468,-19146
17.472,-19146
17.476,-19146
17.480,-19146
17.484,-19146
17.488,-19146
17.492,-19168
17.496,-19168
17.500,-19168
17.504,-19168
17.508,-19168
17.512,-19168
17.516,-19168
17.520,-19168
17.524,-19168
17.528,-19168
17.532,-19168
17.536,-19168
17.540,-19168
17.544,-19168
17.548,-19168
17.552,-19168
17.556,-19168
17.560,-19168
17.564,-19168
17.568,-19167
17.572,-19167
17.576,-19167
17.580,-19167
17.584,-19167
17.588,-19167
17.592,-19167
17.596,-19167
17.600,-19167
17.604,-19147
17.608,-19147
17.612,-19147
17.616,-19147
17.620,-19147
17.624,-19147
17.628,-19147
17.632,-19147
17.636,-19147
17.640,-19147
17.644,-19136
17.648,-19136
17.652,-19136
17.656,-19136
17.660,-19136
17.664,-19136
17.668,-19136
17.672,-19136
17.676,-19136
17.680,-19123
17.684,-19123
17.688,-19123
17.692,-19123
17.696,-19123
17.700,-19123
17.704,-19123
17.708,-19123
17.712,-19123
17.716,-19123
17.720,-19099
17.724,-19099
17.728,-19099
17.732,-19099
17.736,-19099
17.740,-19099
17.744,-19099
17.748,-19099
17.752,-19099
17.756,-19099
17.760,-19126
17.764,-19126
17.768,-19126
17.772,-19126
17.776,-19126
17.780,-19126
17.784,-19126
17.788,-19126
17.792,-19126
17.796,-19098
17.800,-19098
17.804,-19098
17.808,-19098
17.812,-19098
17.816,-19098
17.820,-19098
17.824,-19098
17.828,-19098
17.832,-19098
17.836,-19098
17.840,-19097
17.844,-19097
17.848,-19097
17.852,-19097
17.856,-19097
17.860,-19097
17.864,-19097
17.868,-19097
17.872,-19115
17.876,-19115
17.880,-19115
17.884,-19115
17.888,-19115
17.892,-19115
17.896,-19115
17.900,-19115
17.904,-19115
17.908,-19115
17.912,-19109
17.916,-19109
17.920,-19109
17.924,-19109
17.928,-19109
17.932,-19109
17.936,-19109
17.940,-19109
17.944,-19109
17.948,-19128
17.952,-19128
17.956,-19128
17.960,-19128
17.964,-19128
17.968,-19128
17.972,-19128
17.976,-19128
17.980,-19128
17.984,-19128
17.988,-19154
17.992,-19154
17.996,-19154
18.000,-19154
18.004,-19154
18.008,-19154
18.012,-19154
18.016,-19154
18.020,-19154
18.024,-19110
18.028,-19110
18.032,-19110
18.036,-19110
18.040,-19110
18.044,-19110
18.048,-19110
18.052,-19110
18.056,-19110
18.060,-19110
18.064,-19094
18.068,-19094
18.072,-19094
18.076,-19094
18.080,-19094
18.084,-19094
18.088,-19094
18.092,-19094
18.096,-19094
18.100,-19082
18.104,-19082
18.108,-19082
18.112,-19082
18.116,-19082
18.120,-19082
18.124,-19082
18.128,-19082
18.132,-19082
18.136,-19082
18.140,-19023
18.144,-19023
18.148,-19023
18.152,-19023
18.156,-19023
18.160,-19023
18.164,-19023
18.168,-19023
18.172,-19023
18.176,-19010
18.180,-19010
18.184,-19010
18.188,-19010
18.192,-19010
18.196,-19010
18.200,-19010
18.204,-19010
18.208,-19010
18.212,-19010
18.216,-19013
18.220,-19013
18.224,-19013
18.228,-19013
18.232,-19013
18.236,-19013
18.240,-19013
18.244,-19013
18.248,-19013
18.252,-19051
18.256,-19051
18.260,-19051
18.264,-19051
18.268,-19051
18.272,-19051
18.276,-19051
18.280,-19051
18.284,-19051
18.288,-19051
18.292,-19001
18.296,-19001
18.300,-19001
18.304,-19001
18.308,-19001
18.312,-19001
18.316,-19001
18.320,-19001
18.324,-19001
18.328,-18994
18.332,-18994
18.336,-18994
18.340,-18994
18.344,-18994
18.348,-18994
18.352,-18994
18.356,-18994
18.360,-18994
18.364,-18994
18.368,-18992
18.372,-18992
18.376,-18992
18.380,-18992
18.384,-18992
18.388,-18992
18.392,-18992
18.396,-18992
18.400,-18992
18.404,-18977
18.408,-18977
18.412,-18977
18.416,-18977
18.420,-18977
18.424,-18977
18.428,-18977
18.432,-18977
18.436,-18977
18.440,-18977
18.444,-18988
18.448,-18988
18.452,-18988
18.456,-18988
18.460,-18988
18.464,-18988
18.468,-18988
18.472,-18988
18.476,-18988
18.480,-18986
18.484,-18986
18.488,-18986
18.492,-18986
18.496,-18986
18.500,-18986
18.504,-18986
18.508,-18986
18.512,-18986
18.516,-18986
18.520,-19008
18.524,-19008
18.528,-19008
18.532,-19008
18.536,-19008
18.540,-19008
18.544,-19008
18.548,-19008
18.552,-19008
18.556,-19008
18.560,-18938
18.564,-18938
18.568,-18938
18.572,-18938
18.576,-18938
18.580,-18938
18.584,-18938
18.588,-18938
18.592,-18938
18.596,-18917
18.600,-18917
18.604,-18917
18.608,-18917
18.612,-18917
18.616,-18917
18.620,-18917
18.624,-18917
18.628,-18917
18.632,-18917
18.636,-18887
18.640,-18887
18.644,-18887
18.648,-18887
18.652,-18887
18.656,-18887
18.660,-18887
18.664,-18887
18.668,-18887
18.672,-18863
18.676,-18863
18.680,-18863
18.684,-18863
18.688,-18863
18.692,-18863
18.696,-18863
18.700,-18863
18.704,-18863
18.708,-18863
18.712,-18855
18.716,-18855
18.720,-18855
18.724,-18855
18.728,-18855
18.732,-18855
18.736,-18855
18.740,-18855
18.744,-18855
18.748,-18901
18.752,-18901
18.756,-18901
18.760,-18901
18.764,-18901
18.768,-18901
18.772,-18901
18.776,-18901
18.780,-18901
18.784,-18901
18.788,-18892
18.792,-18892
18.796,-18892
18.800,-18892
18.804,-18892
18.808,-18892
18.812,-18892
18.816,-18892
18.820,-18892
18.824,-18898
18.828,-18898
18.832,-18898
18.836,-18898
18.840,-18898
18.844,-18898
18.848,-18898
18.852,-18898
18.856,-18898
18.860,-18898
18.864,-18919
18.868,-18919
18.872,-18919
18.876,-18919
18.880,-18919
18.884,-18919
18.888,-18919
18.892,-18919
18.896,-18919
18.900,-18919
18.904,-18908
18.908,-18908
18.912,-18908
18.916,-18908
18.920,-18908
18.924,-18908
18.928,-18908
18.932,-18908
18.936,-18908
18.940,-18908
18.944,-18907
18.948,-18907
18.952,-18907
18.956,-18907
18.960,-18907
18.964,-18907
18.968,-18907
18.972,-18907
18.976,-18907
18.980,-18884
18.984,-18884
18.988,-18884
18.992,-18884
18.996,-18884
19.000,-18884
19.004,-18884
19.008,-18884
19.012,-18884
19.016,-18884
19.020,-18854
19.024,-18854
19.028,-18854
19.032,-18854
19.036,-18854
19.040,-18854
19.044,-18854
19.048,-18854
19.052,-18854
19.056,-18843
19.060,-18843
19.064,-18843
19.068,-18843
19.072,-18843
19.076,-18843
19.080,-18843
19.084,-18843
19.088,-18843
19.092,-18843
19.096,-18848
19.100,-18848
19.104,-18848
19.108,-18848
19.112,-18848
19.116,-18848
19.120,-18848
19.124,-18848
19.128,-18848
19.132,-18859
19.136,-18859
19.140,-18859
19.144,-18859
19.148,-18859
19.152,-18859
19.156,-18859
19.160,-18859
19.164,-18859
19.168,-18859
19.172,-18838
19.176,-18838
19.180,-18838
19.184,-18838
19.188,-18838
19.192,-18838
19.196,-18838
19.200,-18838
19.204,-18838
19.208,-18863
19.212,-18863
19.216,-18863
19.220,-18863
19.224,-18863
19.228,-18863
19.232,-18863
19.236,-18863
19.240,-18863
19.244,-18863
19.248,-18827
19.252,-18827
19.256,-18827
19.260,-18827
19.264,-18827
19.268,-18827
19.272,-18827
19.276,-18827
19.280,-18827
19.284,-18804
19.288,-18804
19.292,-18804
19.296,-18804
19.300,-18804
19.304,-18804
19.308,-18804
19.312,-18804
19.316,-18804
19.320,-18804
19.324,-18815
19.328,-18815
19.332,-18815
19.336,-18815
19.340,-18815
19.344,-18815
19.348,-18815
19.352,-18815
19.356,-18815
19.360,-18780
19.364,-18780
19.368,-18780
19.372,-18780
19.376,-18780
19.380,-18780
19.384,-18780
19.388,-18780
19.392,-18780
19.396,-18768
19.400,-18768
19.404,-18768
19.408,-18768
19.412,-18768
19.416,-18768
19.420,-18768
19.424,-18768
19.428,-18768
19.432,-18768
19.436,-18728
19.440,-18728
19.444,-18728
19.448,-18728
19.452,-18728
19.456,-18728
19.460,-18728
19.464,-18728
19.468,-18728
19.472,-18726
19.476,-18726
19.480,-18726
19.484,-18726
19.488,-18726
19.492,-18726
19.496,-18726
19.500,-18726
19.504,-18726
19.508,-18726
19.512,-18736
19.516,-18736
19.520,-18736
19.524,-18736
19.528,-18736
19.532,-18736
19.536,-18736
19.540,-18736
19.544,-18736
19.548,-18790
19.552,-18790
19.556,-18790
19.560,-18790
19.564,-18790
19.568,-18790
19.572,-18790
19.576,-18790
19.580,-18790
19.584,-18790
19.588,-18833
19.592,-18833
19.596,-18833
19.600,-18833
19.604,-18833
19.608,-18833
19.612,-18833
19.616,-18833
19.620,-18833
19.624,-18936
19.628,-18936
19.632,-18936
19.636,-18936
19.640,-18936
19.644,-18936
19.648,-18936
19.652,-18936
19.656,-18936
19.660,-18936
19.664,-19025
19.668,-19025
19.672,-19025
19.676,-19025
19.680,-19025
19.684,-19025
19.688,-19025
19.692,-19025
19.696,-19025
19.700,-19102
19.704,-19102
19.708,-19102
19.712,-19102
19.716,-19102
19.720,-19102
19.724,-19102
19.728,-19102
19.732,-19102
19.736,-19102
19.740,-19134
19.744,-19134
19.748,-19134
19.752,-19134
19.756,-19134
19.760,-19134
19.764,-19134
19.768,-19134
19.772,-19134
19.776,-19159
19.780,-19159
19.784,-19159
19.788,-19159
19.792,-19159
19.796,-19159
19.800,-19159
19.804,-19159
19.808,-19159
19.812,-19159
19.816,-19197
19.820,-19197
19.824,-19197
19.828,-19197
19.832,-19197
19.836,-19197
19.840,-19197
19.844,-19197
19.848,-19197
19.852,-19232
19.856,-19232
19.860,-19232
19.864,-19232
19.868,-19232
19.872,-19232
19.876,-19232
19.880,-19232
19.884,-19232
19.888,-19232
19.892,-19260
19.896,-19260
19.900,-19260
19.904,-19260
19.908,-19260
19.912,-19260
19.916,-19260
19.920,-19260
19.924,-19260
19.928,-19295
19.932,-19295
19.936,-19295
19.940,-19295
19.944,-19295
19.948,-19295
19.952,-19295
19.956,-19295
19.960,-19295
19.964,-19295
19.968,-19295
19.972,-19329
19.976,-19329
19.980,-19329
19.984,-19329
19.988,-19329
19.992,-19329
19.996,-19329
20.000,-19329
20.004,-19329
20.008,-19356
20.012,-19356
20.016,-19356
20.020,-19356
20.024,-19356
20.028,-19356
20.032,-19356
20.036,-19356
20.040,-19356
20.044,-19356
20.048,-19377
20.052,-19377
20.056,-19377
20.060,-19377
20.064,-19377
20.068,-19377
20.072,-19377
20.076,-19377
20.080,-19408
20.084,-19408
20.088,-19408
20.092,-19408
20.096,-19408
20.100,-19408
20.104,-19408
20.108,-19408
20.112,-19408
20.116,-19408
20.120,-19408
20.124,-19423
20.128,-19423
20.132,-19423
20.136,-19423
20.140,-19423
20.144,-19423
20.148,-19423
20.152,-19423
20.156,-19423
20.160,-19503
20.164,-19503
20.168,-19503
20.172,-19503
20.176,-19503
20.180,-19503
20.184,-19503
20.188,-19503
20.192,-19503
20.196,-19503
20.200,-19500
20.204,-19500
20.208,-19500
20.212,-19500
20.216,-19500
20.220,-19500
20.224,-19500
20.228,-19500
20.232,-19500
20.236,-19500
20.240,-19539
20.244,-19539
20.248,-19539
20.252,-19539
20.256,-19539
20.260,-19539
20.264,-19539
20.268,-19539
20.272,-19539
20.276,-19551
20.280,-19551
20.284,-19551
20.288,-19551
20.292,-19551
20.296,-19551
20.300,-19551
20.304,-19551
20.308,-19551
20.312,-19551
20.316,-19563
20.320,-19563
20.324,-19563
20.328,-19563
20.332,-19563
20.336,-19563
20.340,-19563
20.344,-19563
20.348,-19563
20.352,-19599
20.356,-19599
20.360,-19599
20.364,-19599
20.368,-19599
20.372,-19599
20.376,-19599
20.380,-19599
20.384,-19599
20.388,-19599
20.392,-19614
20.396,-19614
20.400,-19614
20.404,-19614
20.408,-19614
20.412,-19614
20.416,-19614
20.420,-19614
20.424,-19614
20.428,-19647
20.432,-19647
20.436,-19647
20.440,-19647
20.444,-19647
20.448,-19647
20.452,-19647
20.456,-19647
20.460,-19647
20.464,-19647
20.468,-19665
20.472,-19665
20.476,-19665
20.480,-19665
20.484,-19665
20.488,-19665
20.492,-19665
20.496,-19665
20.500,-19665
20.504,-19706
20.508,-19706
20.512,-19706
20.516,-19706
20.520,-19706
20.524,-19706
20.528,-19706
20.532,-19706
20.536,-19706
20.540,-19706
20.544,-19653
20.548,-19653
20.552,-19653
20.556,-19653
20.560,-19653
20.564,-19653
20.568,-19653
20.572,-19653
20.576,-19653
20.580,-19643
20.584,-19643
20.588,-19643
20.592,-19643
20.596,-19643
20.600,-19643
20.604,-19643
20.608,-19643
20.612,-19643
20.616,-19643
20.620,-19627
20.624,-19627
20.628,-19627
20.632,-19627
20.636,-19627
20.640,-19627
20.644,-19627
20.648,-19627
20.652,-19627
20.656,-19657
20.660,-19657
20.664,-19657
20.668,-19657
20.672,-19657
20.676,-19657
20.680,-19657
20.684,-19657
20.688,-19657
20.692,-19657
20.696,-19668
20.700,-19668
20.704,-19668
20.708,-19668
20.712,-19668
20.716,-19668
20.720,-19668
20.724,-19668
20.728,-19668
20.732,-19675
20.736,-19675
20.740,-19675
20.744,-19675
20.748,-19675
20.752,-19675
20.756,-19675
20.760,-19675
20.764,-19675
20.768,-19675
20.772,-19703
20.776,-19703
20.780,-19703
20.784,-19703
20.788,-19703
20.792,-19703
20.796,-19703
20.800,-19703
20.804,-19703
20.808,-19724
20.812,-19724
20.816,-19724
20.820,-19724
20.824,-19724
20.828,-19724
20.832,-19724
20.836,-19724
20.840,-19724
20.844,-19724
20.848,-19750
20.852,-19750
20.856,-19750
20.860,-19750
20.864,-19750
20.868,-19750
20.872,-19750
20.876,-19750
20.880,-19750
20.884,-19765
20.888,-19765
20.892,-19765
20.896,-19765
20.900,-19765
20.904,-19765
20.908,-19765
20.912,-19765
20.916,-19765
20.920,-19765
20.924,-19790
20.928,-19790
20.932,-19790
20.936,-19790
20.940,-19790
20.944,-19790
20.948,-19790
20.952,-19790
20.956,-19790
20.960,-19797
20.964,-19797
20.968,-19797
20.972,-19797
20.976,-19797
20.980,-19797
20.984,-19797
20.988,-19797
20.992,-19797
20.996,-19797
21.000,-19801
21.004,-19801
21.008,-19801
21.012,-19801
21.016,-19801
21.020,-19801
21.024,-19801
21.028,-19801
21.032,-19801
21.036,-19801
21.040,-19805
21.044,-19805
21.048,-19805
21.052,-19805
21.056,-19805
21.060,-19805
21.064,-19805
21.068,-19805
21.072,-19805
21.076,-19805
21.080,-19816
21.084,-19816
21.088,-19816
21.092,-19816
21.096,-19816
21.100,-19816
21.104,-19816
21.108,-19816
21.112,-19816
21.116,-19816
21.120,-19812
21.124,-19812
21.128,-19812
21.132,-19812
21.136,-19812
21.140,-19812
21.144,-19812
21.148,-19812
21.152,-19812
21.156,-19843
21.160,-19843
21.164,-19843
21.168,-19843
21.172,-19843
21.176,-19843
21.180,-19843
21.184,-19843
21.188,-19843
21.192,-19843
21.196,-19844
21.200,-19844
21.204,-19844
21.208,-19844
21.212,-19844
21.216,-19844
21.220,-19844
21.224,-19844
21.228,-19844
21.232,-19855
21.236,-19855
21.240,-19855
21.244,-19855
21.248,-19855
21.252,-19855
21.256,-19855
21.260,-19855
21.264,-19855
21.268,-19855
21.272,-19855
21.276,-19855
21.280,-19855
21.284,-19855
21.288,-19855
21.292,-19855
21.296,-19855
21.300,-19855
21.304,-19855
21.308,-19827
21.312,-19827
21.316,-19827
21.320,-19827
21.324,-19827
21.328,-19827
21.332,-19827
21.336,-19827
21.340,-19827
21.344,-19827
21.348,-19822
21.352,-19822
21.356,-19822
21.360,-19822
21.364,-19822
21.368,-19822
21.372,-19822
21.376,-19822
21.380,-19822
21.384,-19841
21.388,-19841
21.392,-19841
21.396,-19841
21.400,-19841
21.404,-19841
21.408,-19841
21.412,-19841
21.416,-19841
21.420,-19841
21.424,-19834
21.428,-19834
21.432,-19834
21.436,-19834
21.440,-19834
21.444,-19834
21.448,-19834
21.452,-19834
21.456,-19834
21.460,-19822
21.464,-19822
21.468,-19822
21.472,-19822
21.476,-19822
21.480,-19822
21.484,-19822
21.488,-19822
21.492,-19822
21.496,-19822
21.500,-19815
21.504,-19815
21.508,-19815
21.512,-19815
21.516,-19815
21.520,-19815
21.524,-19815
21.528,-19815
21.532,-19815
21.536,-19805
21.540,-19805
21.544,-19805
21.548,-19805
21.552,-19805
21.556,-19805
21.560,-19805
21.564,-19805
21.568,-19805
21.572,-19805
21.576,-19745
21.580,-19745
21.584,-19745
21.588,-19745
21.592,-19745
21.596,-19745
21.600,-19745
21.604,-19745
21.608,-19745
21.612,-19727
21.616,-19727
21.620,-19727
21.624,-19727
21.628,-19727
21.632,-19727
21.636,-19727
21.640,-19727
21.644,-19727
21.648,-19727
21.652,-19738
21.656,-19738
21.660,-19738
21.664,-19738
21.668,-19738
21.672,-19738
21.676,-19738
21.680,-19738
21.684,-19738
21.688,-19712
21.692,-19712
21.696,-19712
21.700,-19712
21.704,-19712
21.708,-19712
21.712,-19712
21.716,-19712
21.720,-19712
21.724,-19712
21.728,-19716
21.732,-19716
21.736,-19716
21.740,-19716
21.744,-19716
21.748,-19716
21.752,-19716
21.756,-19716
21.760,-19716
21.764,-19670
21.768,-19670
21.772,-19670
21.776,-19670
21.780,-19670
21.784,-19670
21.788,-19670
21.792,-19670
21.796,-19670
21.800,-19670
21.804,-19688
21.808,-19688
21.812,-19688
21.816,-19688
21.820,-19688
21.824,-19688
21.828,-19688
21.832,-19688
21.836,-19688
21.840,-19681
21.844,-19681
21.848,-19681
21.852,-19681
21.856,-19681
21.860,-19681
21.864,-19681
21.868,-19681
21.872,-19681
21.876,-19681
21.880,-19692
21.884,-19692
21.888,-19692
21.892,-19692
21.896,-19692
21.900,-19692
21.904,-19692
21.908,-19692
21.912,-19692
21.916,-19692
21.920,-19687
21.924,-19687
21.928,-19687
21.932,-19687
21.936,-19687
21.940,-19687
21.944,-19687
21.948,-19687
21.952,-19687
21.956,-19694
21.960,-19694
21.964,-19694
21.968,-19694
21.972,-19694
21.976,-19694
21.980,-19694
21.984,-19694
21.988,-19694
21.992,-19694
21.996,-19704
22.000,-19704
22.004,-19704
22.008,-19704
22.012,-19704
22.016,-19704
22.020,-19704
22.024,-19704
22.028,-19704
22.032,-19682
22.036,-19682
22.040,-19682
22.044,-19682
22.048,-19682
22.052,-19682
22.056,-19682
22.060,-19682
22.064,-19682
22.068,-19682
22.072,-19638
22.076,-19638
22.080,-19638
22.084,-19638
22.088,-19638
22.092,-19638
22.096,-19638
22.100,-19638
22.104,-19638
22.108,-19638
22.112,-19617
22.116,-19617
22.120,-19617
22.124,-19617
22.128,-19617
22.132,-19617
22.136,-19617
22.140,-19617
22.144,-19617
22.148,-19617
22.152,-19617
22.156,-19617
22.160,-19617
22.164,-19617
22.168,-19617
22.172,-19617
22.176,-19617
22.180,-19617
22.184,-19617
22.188,-19661
22.192,-19661
22.196,-19661
22.200,-19661
22.204,-19661
22.208,-19661
22.212,-19661
22.216,-19661
22.220,-19661
22.224,-19661
22.228,-19614
22.232,-19614
22.236,-19614
22.240,-19614
22.244,-19614
22.248,-19614
22.252,-19614
22.256,-19614
22.260,-19614
22.264,-19614
22.268,-19614
22.272,-19614
22.276,-19614
22.280,-19614
22.284,-19614
22.288,-19614
22.292,-19614
22.296,-19614
22.300,-19614
22.304,-19578
22.308,-19578
22.312,-19578
22.316,-19578
22.320,-19578
22.324,-19578
22.328,-19578
22.332,-19578
22.336,-19578
22.340,-19573
22.344,-19573
22.348,-19573
22.352,-19573
22.356,-19573
22.360,-19573
22.364,-19573
22.368,-19573
22.372,-19573
22.376,-19573
22.380,-19534
22.384,-19534
22.388,-19534
22.392,-19534
22.396,-19534
22.400,-19534
22.404,-19534
22.408,-19534
22.412,-19534
22.416,-19513
22.420,-19513
22.424,-19513
22.428,-19513
22.432,-19513
22.436,-19513
22.440,-19513
22.444,-19513
22.448,-19513
22.452,-19513
22.456,-19486
22.460,-19486
22.464,-19486
22.468,-19486
22.472,-19486
22.476,-19486
22.480,-19486
22.484,-19486
22.488,-19486
22.492,-19498
22.496,-19498
22.500,-19498
22.504,-19498
22.508,-19498
22.512,-19498
22.516,-19498
22.520,-19498
22.524,-19498
22.528,-19498
22.532,-19490
22.536,-19490
22.540,-19490
22.544,-19490
22.548,-19490
22.552,-19490
22.556,-19490
22.560,-19490
22.564,-19490
22.568,-19500
22.572,-19500
22.576,-19500
22.580,-19500
22.584,-19500
22.588,-19500
22.592,-19500
22.596,-19500
22.600,-19500
22.604,-19500
22.608,-19493
22.612,-19493
22.616,-19493
22.620,-19493
22.624,-19493
22.628,-19493
22.632,-19493
22.636,-19493
22.640,-19493
22.644,-19470
22.648,-19470
22.652,-19470
22.656,-19470
22.660,-19470
22.664,-19470
22.668,-19470
22.672,-19470
22.676,-19470
22.680,-19431
22.684,-19431
22.688,-19431
22.692,-19431
22.696,-19431
22.700,-19431
22.704,-19431
22.708,-19431
22.712,-19431
22.716,-19431
22.720,-19405
22.724,-19405
22.728,-19405
22.732,-19405
22.736,-19405
22.740,-19405
22.744,-19405
22.748,-19405
22.752,-19405
22.756,-19383
22.760,-19383
22.764,-19383
22.768,-19383
22.772,-19383
22.776,-19383
22.780,-19383
22.784,-19383
22.788,-19383
22.792,-19383
22.796,-19370
22.800,-19370
22.804,-19370
22.808,-19370
22.812,-19370
22.816,-19370
22.820,-19370
22.824,-19370
22.828,-19370
22.832,-19364
22.836,-19364
22.840,-19364
22.844,-19364
22.848,-19364
22.852,-19364
22.856,-19364
22.860,-19364
22.864,-19364
22.868,-19364
22.872,-19359
22.876,-19359
22.880,-19359
22.884,-19359
22.888,-19359
22.892,-19359
22.896,-19359
22.900,-19359
22.904,-19359
22.908,-19371
22.912,-19371
22.916,-19371
22.920,-19371
22.924,-19371
22.928,-19371
22.932,-19371
22.936,-19371
22.940,-19371
22.944,-19371
22.948,-19333
22.952,-19333
22.956,-19333
22.960,-19333
22.964,-19333
22.968,-19333
22.972,-19333
22.976,-19333
22.980,-19333
22.984,-19354
22.988,-19354
22.992,-19354
22.996,-19354
23.000,-19354
23.004,-19354
23.008,-19354
23.012,-19354
23.016,-19354
23.020,-19354
23.024,-19289
23.028,-19289
23.032,-19289
23.036,-19289
23.040,-19289
23.044,-19289
23.048,-19289
23.052,-19289
23.056,-19289
23.060,-19272
23.064,-19272
23.068,-19272
23.072,-19272
23.076,-19272
23.080,-19272
23.084,-19272
23.088,-19272
23.092,-19272
23.096,-19272
23.100,-19211
23.104,-19211
23.108,-19211
23.112,-19211
23.116,-19211
23.120,-19211
23.124,-19211
23.128,-19211
23.132,-19211
23.136,-19202
23.140,-19202
23.144,-19202
23.148,-19202
23.152,-19202
23.156,-19202
23.160,-19202
23.164,-19202
23.168,-19202
23.172,-19202
23.176,-19202
23.180,-19165
23.184,-19165
23.188,-19165
23.192,-19165
23.196,-19165
23.200,-19165
23.204,-19165
23.208,-19165
23.212,-19165
23.216,-19197
23.220,-19197
23.224,-19197
23.228,-19197
23.232,-19197
23.236,-19197
23.240,-19197
23.244,-19197
23.248,-19197
23.252,-19197
23.256,-19209
23.260,-19209
23.264,-19209
23.268,-19209
23.272,-19209
23.276,-19209
23.280,-19209
23.284,-19209
23.288,-19209
23.292,-19253
23.296,-19253
23.300,-19253
23.304,-19253
23.308,-19253
23.312,-19253
23.316,-19253
23.320,-19253
23.324,-19253
23.328,-19253
23.332,-19262
23.336,-19262
23.340,-19262
23.344,-19262
23.348,-19262
23.352,-19262
23.356,-19262
23.360,-19262
23.364,-19262
23.368,-19296
23.372,-19296
23.376,-19296
23.380,-19296
23.384,-19296
23.388,-19296
23.392,-19296
23.396,-19296
23.400,-19296
23.404,-19296
23.408,-19339
23.412,-19339
23.416,-19339
23.420,-19339
23.424,-19339
23.428,-19339
23.432,-19339
23.436,-19339
23.440,-19339
23.444,-19381
23.448,-19381
23.452,-19381
23.456,-19381
23.460,-19381
23.464,-19381
23.468,-19381
23.472,-19381
23.476,-19381
23.480,-19381
23.484,-19439
23.488,-19439
23.492,-19439
23.496,-19439
23.500,-19439
23.504,-19439
23.508,-19439
23.512,-19439
23.516,-19439
23.520,-19493
23.524,-19493
23.528,-19493
23.532,-19493
23.536,-19493
23.540,-19493
23.544,-19493
23.548,-19493
23.552,-19493
23.556,-19493
23.560,-19553
23.564,-19553
23.568,-19553
23.572,-19553
23.576,-19553
23.580,-19553
23.584,-19553
23.588,-19553
23.592,-19553
23.596,-19553
23.600,-19626
23.604,-19626
23.608,-19626
23.612,-19626
23.616,-19626
23.620,-19626
23.624,-19626
23.628,-19626
23.632,-19626
23.636,-19605
23.640,-19605
23.644,-19605
23.648,-19605
23.652,-19605
23.656,-19605
23.660,-19605
23.664,-19605
23.668,-19605
23.672,-19605
23.676,-19619
23.680,-19619
23.684,-19619
23.688,-19619
23.692,-19619
23.696,-19619
23.700,-19619
23.704,-19619
23.708,-19619
23.712,-19651
23.716,-19651
23.720,-19651
23.724,-19651
23.728,-19651
23.732,-19651
23.736,-19651
23.740,-19651
23.744,-19651
23.748,-19651
23.752,-19616
23.756,-19616
23.760,-19616
23.764,-19616
23.768,-19616
23.772,-19616
23.776,-19616
23.780,-19616
23.784,-19616
23.788,-19607
23.792,-19607
23.796,-19607
23.800,-19607
23.804,-19607
23.808,-19607
23.812,-19607
23.816,-19607
23.820,-19607
23.824,-19607
23.828,-19611
23.832,-19611
23.836,-19611
23.840,-19611
23.844,-19611
23.848,-19611
23.852,-19611
23.856,-19611
23.860,-19611
23.864,-19643
23.868,-19643
23.872,-19643
23.876,-19643
23.880,-19643
23.884,-19643
23.888,-19643
23.892,-19643
23.896,-19643
23.900,-19643
23.904,-19658
23.908,-19658
23.912,-19658
23.916,-19658
23.920,-19658
23.924,-19658
23.928,-19658
23.932,-19658
23.936,-19658
23.940,-19670
23.944,-19670
23.948,-19670
23.952,-19670
23.956,-19670
23.960,-19670
23.964,-19670
23.968,-19670
23.972,-19670
23.976,-19670
23.980,-19682
23.984,-19682
23.988,-19682
23.992,-19682
23.996,-19682
24.000,-19682
24.004,-19682
24.008,-19682
24.012,-19682
24.016,-19666
24.020,-19666
24.024,-19666
24.028,-19666
24.032,-19666
24.036,-19666
24.040,-19666
24.044,-19666
24.048,-19666
24.052,-19666
24.056,-19695
24.060,-19695
24.064,-19695
24.068,-19695
24.072,-19695
24.076,-19695
24.080,-19695
24.084,-19695
24.088,-19695
24.092,-19709
24.096,-19709
24.100,-19709
24.104,-19709
24.108,-19709
24.112,-19709
24.116,-19709
24.120,-19709
24.124,-19709
24.128,-19709
24.132,-19783
24.136,-19783
24.140,-19783
24.144,-19783
24.148,-19783
24.152,-19783
24.156,-19783
24.160,-19783
24.164,-19783
24.168,-19780
24.172,-19780
24.176,-19780
24.180,-19780
24.184,-19780
24.188,-19780
24.192,-19780
24.196,-19780
24.200,-19780
24.204,-19780
24.208,-19795
24.212,-19795
24.216,-19795
24.220,-19795
24.224,-19795
24.228,-19795
24.232,-19795
24.236,-19795
24.240,-19795
24.244,-19795
24.248,-19772
24.252,-19772
24.256,-19772
24.260,-19772
24.264,-19772
24.268,-19772
24.272,-19772
24.276,-19772
24.280,-19772
24.284,-19772
24.288,-19757
24.292,-19757
24.296,-19757
24.300,-19757
24.304,-19757
24.308,-19757
24.312,-19757
24.316,-19757
24.320,-19714
24.324,-19714
24.328,-19714
24.332,-19714
24.336,-19714
24.340,-19714
24.344,-19714
24.348,-19714
24.352,-19714
24.356,-19714
24.360,-19714
24.364,-19680
24.368,-19680
24.372,-19680
24.376,-19680
24.380,-19680
24.384,-19680
24.388,-19680
24.392,-19680
24.396,-19680
24.400,-19660
24.404,-19660
24.408,-19660
24.412,-19660
24.416,-19660
24.420,-19660
24.424,-19660
24.428,-19660
24.432,-19660
24.436,-19660
24.440,-19652
24.444,-19652
24.448,-19652
24.452,-19652
24.456,-19652
24.460,-19652
24.464,-19652
24.468,-19652
24.472,-19652
24.476,-19652
24.480,-19665
24.484,-19665
24.488,-19665
24.492,-19665
24.496,-19665
24.500,-19665
24.504,-19665
24.508,-19665
24.512,-19665
24.516,-19636
24.520,-19636
24.524,-19636
24.528,-19636
24.532,-19636
24.536,-19636
24.540,-19636
24.544,-19636
24.548,-19636
24.552,-19636
24.556,-19599
24.560,-19599
24.564,-19599
24.568,-19599
24.572,-19599
24.576,-19599
24.580,-19599
24.584,-19599
24.588,-19599
24.592,-19560
24.596,-19560
24.600,-19560
24.604,-19560
24.608,-19560
24.612,-19560
24.616,-19560
24.620,-19560
24.624,-19560
24.628,-19560
24.632,-19522
24.636,-19522
24.640,-19522
24.644,-19522
24.648,-19522
24.652,-19522
24.656,-19522
24.660,-19522
24.664,-19522
24.668,-19513
24.672,-19513
24.676,-19513
24.680,-19513
24.684,-19513
24.688,-19513
24.692,-19513
24.696,-19513
24.700,-19513
24.704,-19513
24.708,-19488
24.712,-19488
24.716,-19488
24.720,-19488
24.724,-19488
24.728,-19488
24.732,-19488
24.736,-19488
24.740,-19488
24.744,-19486
24.748,-19486
24.752,-19486
24.756,-19486
24.760,-19486
24.764,-19486
24.768,-19486
24.772,-19486
24.776,-19486
24.780,-19486
24.784,-19496
24.788,-19496
24.792,-19496
24.796,-19496
24.800,-19496
24.804,-19496
24.808,-19496
24.812,-19496
24.816,-19496
24.820,-19432
24.824,-19432
24.828,-19432
24.832,-19432
24.836,-19432
24.840,-19432
24.844,-19432
24.848,-19432
24.852,-19432
24.856,-19432
24.860,-19382
24.864,-19382
24.868,-19382
24.872,-19382
24.876,-19382
24.880,-19382
24.884,-19382
24.888,-19382
24.892,-19382
24.896,-19346
24.900,-19346
24.904,-19346
24.908,-19346
24.912,-19346
24.916,-19346
24.920,-19346
24.924,-19346
24.928,-19346
24.932,-19346
24.936,-19330
24.940,-19330
24.944,-19330
24.948,-19330
24.952,-19330
24.956,-19330
24.960,-19330
24.964,-19330
24.968,-19330
24.972,-19322
24.976,-19322
24.980,-19322
24.984,-19322
24.988,-19322
24.992,-19322
24.996,-19322
25.000,-19322
25.004,-19322
25.008,-19322
25.012,-19309
25.016,-19309
25.020,-19309
25.024,-19309
25.028,-19309
25.032,-19309
25.036,-19309
25.040,-19309
25.044,-19309
25.048,-19316
25.052,-19316
25.056,-19316
25.060,-19316
25.064,-19316
25.068,-19316
25.072,-19316
25.076,-19316
25.080,-19316
25.084,-19316
25.088,-19296
25.092,-19296
25.096,-19296
25.100,-19296
25.104,-19296
25.108,-19296
25.112,-19296
25.116,-19296
25.120,-19296
25.124,-19281
25.128,-19281
25.132,-19281
25.136,-19281
25.140,-19281
25.144,-19281
25.148,-19281
25.152,-19281
25.156,-19281
25.160,-19281
25.164,-19255
25.168,-19255
25.172,-19255
25.176,-19255
25.180,-19255
25.184,-19255
25.188,-19255
25.192,-19255
25.196,-19255
25.200,-19263
25.204,-19263
25.208,-19263
25.212,-19263
25.216,-19263
25.220,-19263
25.224,-19263
25.228,-19263
25.232,-19263
25.236,-19263
25.240,-19256
25.244,-19256
25.248,-19256
25.252,-19256
25.256,-19256
25.260,-19256
25.264,-19256
25.268,-19256
25.272,-19256
25.276,-19256
25.280,-19242
25.284,-19242
25.288,-19242
25.292,-19242
25.296,-19242
25.300,-19242
25.304,-19242
25.308,-19242
25.312,-19242
25.316,-19242
25.320,-19195
25.324,-19195
25.328,-19195
25.332,-19195
25.336,-19195
25.340,-19195
25.344,-19195
25.348,-19195
25.352,-19195
25.356,-19195
25.360,-19195
25.364,-19195
25.368,-19195
25.372,-19195
25.376,-19195
25.380,-19195
25.384,-19195
25.388,-19195
25.392,-19140
25.396,-19140
25.400,-19140
25.404,-19140
25.408,-19140
25.412,-19140
25.416,-19140
25.420,-19140
25.424,-19140
25.428,-19140
25.432,-19150
25.436,-19150
25.440,-19150
25.444,-19150
25.448,-19150
25.452,-19150
25.456,-19150
25.460,-19150
25.464,-19150
25.468,-19118
25.472,-19118
25.476,-19118
25.480,-19118
25.484,-19118
25.488,-19118
25.492,-19118
25.496,-19118
25.500,-19118
25.504,-19118
25.508,-19115
25.512,-19115
25.516,-19115
25.520,-19115
25.524,-19115
25.528,-19115
25.532,-19115
25.536,-19115
25.540,-19115
25.544,-19093
25.548,-19093
25.552,-19093
25.556,-19093
25.560,-19093
25.564,-19093
25.568,-19093
25.572,-19093
25.576,-19093
25.580,-19093
25.584,-19101
25.588,-19101
25.592,-19101
25.596,-19101
25.600,-19101
25.604,-19101
25.608,-19101
25.612,-19101
25.616,-19101
25.620,-19069
25.624,-19069
25.628,-19069
25.632,-19069
25.636,-19069
25.640,-19069
25.644,-19069
25.648,-19069
25.652,-19069
25.656,-19069
25.660,-19049
25.664,-19049
25.668,-19049
25.672,-19049
25.676,-19049
25.680,-19049
25.684,-19049
25.688,-19049
25.692,-19049
25.696,-19000
25.700,-19000
25.704,-19000
25.708,-19000
25.712,-19000
25.716,-19000
25.720,-19000
25.724,-19000
25.728,-19000
25.732,-19000
25.736,-18995
25.740,-18995
25.744,-18995
25.748,-18995
25.752,-18995
25.756,-18995
25.760,-18995
25.764,-18995
25.768,-18995
25.772,-18948
25.776,-18948
25.780,-18948
25.784,-18948
25.788,-18948
25.792,-18948
25.796,-18948
25.800,-18948
25.804,-18948
25.808,-18948
25.812,-18984
25.816,-18984
25.820,-18984
25.824,-18984
25.828,-18984
25.832,-18984
25.836,-18984
25.840,-18984
25.844,-18984
25.848,-18935
25.852,-18935
25.856,-18935
25.860,-18935
25.864,-18935
25.868,-18935
25.872,-18935
25.876,-18935
25.880,-18935
25.884,-18935
25.888,-18902
25.892,-18902
25.896,-18902
25.900,-18902
25.904,-18902
25.908,-18902
25.912,-18902
25.916,-18902
25.920,-18902
25.924,-18866
25.928,-18866
25.932,-18866
25.936,-18866
25.940,-18866
25.944,-18866
25.948,-18866
25.952,-18866
25.956,-18866
25.960,-18866
25.964,-18881
25.968,-18881
25.972,-18881
25.976,-18881
25.980,-18881
25.984,-18881
25.988,-18881
25.992,-18881
25.996,-18881
26.000,-18851
26.004,-18851
26.008,-18851
26.012,-18851
26.016,-18851
26.020,-18851
26.024,-18851
26.028,-18851
26.032,-18851
26.036,-18851
26.040,-18834
26.044,-18834
26.048,-18834
26.052,-18834
26.056,-18834
26.060,-18834
26.064,-18834
26.068,-18834
26.072,-18834
26.076,-18834
26.080,-18798
26.084,-18798
26.088,-18798
26.092,-18798
26.096,-18798
26.100,-18798
26.104,-18798
26.108,-18798
26.112,-18798
26.116,-18783
26.120,-18783
26.124,-18783
26.128,-18783
26.132,-18783
26.136,-18783
26.140,-18783
26.144,-18783
26.148,-18783
26.152,-18783
26.156,-18760
26.160,-18760
26.164,-18760
26.168,-18760
26.172,-18760
26.176,-18760
26.180,-18760
26.184,-18760
26.188,-18760
26.192,-18744
26.196,-18744
26.200,-18744
26.204,-18744
26.208,-18744
26.212,-18744
26.216,-18744
26.220,-18744
26.224,-18744
26.228,-18744
26.232,-18699
26.236,-18699
26.240,-18699
26.244,-18699
26.248,-18699
26.252,-18699
26.256,-18699
26.260,-18699
26.264,-18699
26.268,-18670
26.272,-18670
26.276,-18670
26.280,-18670
26.284,-18670
26.288,-18670
26.292,-18670
26.296,-18670
26.300,-18670
26.304,-18670
26.308,-18671
26.312,-18671
26.316,-18671
26.320,-18671
26.324,-18671
26.328,-18671
26.332,-18671
26.336,-18671
26.340,-18671
26.344,-18683
26.348,-18683
26.352,-18683
26.356,-18683
26.360,-18683
26.364,-18683
26.368,-18683
26.372,-18683
26.376,-18683
26.380,-18683
26.384,-18683
26.388,-18660
26.392,-18660
26.396,-18660
26.400,-18660
26.404,-18660
26.408,-18660
26.412,-18660
26.416,-18660
26.420,-18660
26.424,-18644
26.428,-18644
26.432,-18644
26.436,-18644
26.440,-18644
26.444,-18644
26.448,-18644
26.452,-18644
26.456,-18644
26.460,-18644
26.464,-18683
26.468,-18683
26.472,-18683
26.476,-18683
26.480,-18683
26.484,-18683
26.488,-18683
26.492,-18683
26.496,-18683
26.500,-18652
26.504,-18652
26.508,-18652
26.512,-18652
26.516,-18652
26.520,-18652
26.524,-18652
26.528,-18652
26.532,-18652
26.536,-18652
26.540,-18635
26.544,-18635
26.548,-18635
26.552,-18635
26.556,-18635
26.560,-18635
26.564,-18635
26.568,-18635
26.572,-18635
26.576,-18627
26.580,-18627
26.584,-18627
26.588,-18627
26.592,-18627
26.596,-18627
26.600,-18627
26.604,-18627
26.608,-18627
26.612,-18627
26.616,-18627
26.620,-18627
26.624,-18627
26.628,-18627
26.632,-18627
26.636,-18627
26.640,-18627
26.644,-18627
26.648,-18627
26.652,-18592
26.656,-18592
26.660,-18592
26.664,-18592
26.668,-18592
26.672,-18592
26.676,-18592
26.680,-18592
26.684,-18592
26.688,-18592
26.692,-18592
26.696,-18592
26.700,-18592
26.704,-18592
26.708,-18592
26.712,-18592
26.716,-18592
26.720,-18592
26.724,-18592
26.728,-18600
26.732,-18600
26.736,-18600
26.740,-18600
26.744,-18600
26.748,-18600
26.752,-18600
26.756,-18600
26.760,-18600
26.764,-18600
26.768,-18603
26.772,-18603
26.776,-18603
26.780,-18603
26.784,-18603
26.788,-18603
26.792,-18603
26.796,-18603
26.800,-18603
26.804,-18634
26.808,-18634
26.812,-18634
26.816,-18634
26.820,-18634
26.824,-18634
26.828,-18634
26.832,-18634
26.836,-18634
26.840,-18634
26.844,-18631
26.848,-18631
26.852,-18631
26.856,-18631
26.860,-18631
26.864,-18631
26.868,-18631
26.872,-18631
26.876,-18631
26.880,-18649
26.884,-18649
26.888,-18649
26.892,-18649
26.896,-18649
26.900,-18649
26.904,-18649
26.908,-18649
26.912,-18649
26.916,-18649
26.920,-18690
26.924,-18690
26.928,-18690
26.932,-18690
26.936,-18690
26.940,-18690
26.944,-18690
26.948,-18690
26.952,-18690
26.956,-18690
26.960,-18758
26.964,-18758
26.968,-18758
26.972,-18758
26.976,-18758
26.980,-18758
26.984,-18758
26.988,-18758
26.992,-18758
26.996,-18812
27.000,-18812
27.004,-18812
27.008,-18812
27.012,-18812
27.016,-18812
27.020,-18812
27.024,-18812
27.028,-18812
27.032,-18812
27.036,-18860
27.040,-18860
27.044,-18860
27.048,-18860
27.052,-18860
27.056,-18860
27.060,-18860
27.064,-18860
27.068,-18860
27.072,-18886
27.076,-18886
27.080,-18886
27.084,-18886
27.088,-18886
27.092,-18886
27.096,-18886
27.100,-18886
27.104,-18886
27.108,-18886
27.112,-18941
27.116,-18941
27.120,-18941
27.124,-18941
27.128,-18941
27.132,-18941
27.136,-18941
27.140,-18941
27.144,-18941
27.148,-18962
27.152,-18962
27.156,-18962
27.160,-18962
27.164,-18962
27.168,-18962
27.172,-18962
27.176,-18962
27.180,-18962
27.184,-18962
27.188,-18994
27.192,-18994
27.196,-18994
27.200,-18994
27.204,-18994
27.208,-18994
27.212,-18994
27.216,-18994
27.220,-18994
27.224,-19029
27.228,-19029
27.232,-19029
27.236,-19029
27.240,-19029
27.244,-19029
27.248,-19029
27.252,-19029
27.256,-19029
27.260,-19029
27.264,-19063
27.268,-19063
27.272,-19063
27.276,-19063
27.280,-19063
27.284,-19063
27.288,-19063
27.292,-19063
27.296,-19063
27.300,-19088
27.304,-19088
27.308,-19088
27.312,-19088
27.316,-19088
27.320,-19088
27.324,-19088
27.328,-19088
27.332,-19088
27.336,-19088
27.340,-19104
27.344,-19104
27.348,-19104
27.352,-19104
27.356,-19104
27.360,-19104
27.364,-19104
27.368,-19104
27.372,-19104
27.376,-19102
27.380,-19102
27.384,-19102
27.388,-19102
27.392,-19102
27.396,-19102
27.400,-19102
27.404,-19102
27.408,-19102
27.412,-19102
27.416,-19112
27.420,-19112
27.424,-19112
27.428,-19112
27.432,-19112
27.436,-19112
27.440,-19112
27.444,-19112
27.448,-19112
27.452,-19112
27.456,-19126
27.460,-19126
27.464,-19126
27.468,-19126
27.472,-19126
27.476,-19126
27.480,-19126
27.484,-19126
27.488,-19126
27.492,-19126
27.496,-19136
27.500,-19136
27.504,-19136
27.508,-19136
27.512,-19136
27.516,-19136
27.520,-19136
27.524,-19136
27.528,-19136
27.532,-19158
27.536,-19158
27.540,-19158
27.544,-19158
27.548,-19158
27.552,-19158
27.556,-19158
27.560,-19158
27.564,-19158
27.568,-19158
27.572,-19152
27.576,-19152
27.580,-19152
27.584,-19152
27.588,-19152
27.592,-19152
27.596,-19152
27.600,-19152
27.604,-19152
27.608,-19171
27.612,-19171
27.616,-19171
27.620,-19171
27.624,-19171
27.628,-19171
27.632,-19171
27.636,-19171
27.640,-19171
27.644,-19171
27.648,-19155
27.652,-19155
27.656,-19155
27.660,-19155
27.664,-19155
27.668,-19155
27.672,-19155
27.676,-19155
27.680,-19155
27.684,-19170
27.688,-19170
27.692,-19170
27.696,-19170
27.700,-19170
27.704,-19170
27.708,-19170
27.712,-19170
27.716,-19170
27.720,-19170
27.724,-19184
27.728,-19184
27.732,-19184
27.736,-19184
27.740,-19184
27.744,-19184
27.748,-19184
27.752,-19184
27.756,-19184
27.760,-19178
27.764,-19178
27.768,-19178
27.772,-19178
27.776,-19178
27.780,-19178
27.784,-19178
27.788,-19178
27.792,-19178
27.796,-19178
27.800,-19197
27.804,-19197
27.808,-19197
27.812,-19197
27.816,-19197
27.820,-19197
27.824,-19197
27.828,-19197
27.832,-19197
27.836,-19197
27.840,-19212
27.844,-19212
27.848,-19212
27.852,-19212
27.856,-19212
27.860,-19212
27.864,-19212
27.868,-19212
27.872,-19212
27.876,-19214
27.880,-19214
27.884,-19214
27.888,-19214
27.892,-19214
27.896,-19214
27.900,-19214
27.904,-19214
27.908,-19214
27.912,-19214
27.916,-19157
27.920,-19157
27.924,-19157
27.928,-19157
27.932,-19157
27.936,-19157
27.940,-19157
27.944,-19157
27.948,-19157
27.952,-19165
27.956,-19165
27.960,-19165
27.964,-19165
27.968,-19165
27.972,-19165
27.976,-19165
27.980,-19165
27.984,-19165
27.988,-19165
27.992,-19155
27.996,-19155
28.000,-19155
28.004,-19155
28.008,-19155
28.012,-19155
28.016,-19155
28.020,-19155
28.024,-19155
28.028,-19170
28.032,-19170
28.036,-19170
28.040,-19170
28.044,-19170
28.048,-19170
28.052,-19170
28.056,-19170
28.060,-19170
28.064,-19170
28.068,-19176
28.072,-19176
28.076,-19176
28.080,-19176
28.084,-19176
28.088,-19176
28.092,-19176
28.096,-19176
28.100,-19176
28.104,-19199
28.108,-19199
28.112,-19199
28.116,-19199
28.120,-19199
28.124,-19199
28.128,-19199
28.132,-19199
28.136,-19199
28.140,-19199
28.144,-19234
28.148,-19234
28.152,-19234
28.156,-19234
28.160,-19234
28.164,-19234
28.168,-19234
28.172,-19234
28.176,-19234
28.180,-19274
28.184,-19274
28.188,-19274
28.192,-19274
28.196,-19274
28.200,-19274
28.204,-19274
28.208,-19274
28.212,-19274
28.216,-19274
28.220,-19274
28.224,-19274
28.228,-19274
28.232,-19274
28.236,-19274
28.240,-19274
28.244,-19274
28.248,-19274
28.252,-19274
28.256,-19297
28.260,-19297
28.264,-19297
28.268,-19297
28.272,-19297
28.276,-19297
28.280,-19297
28.284,-19297
28.288,-19297
28.292,-19297
28.296,-19283
28.300,-19283
28.304,-19283
28.308,-19283
28.312,-19283
28.316,-19283
28.320,-19283
28.324,-19283
28.328,-19283
28.332,-19273
28.336,-19273
28.340,-19273
28.344,-19273
28.348,-19273
28.352,-19273
28.356,-19273
28.360,-19273
28.364,-19273
28.368,-19273
28.372,-19272
28.376,-19272
28.380,-19272
28.384,-19272
28.388,-19272
28.392,-19272
28.396,-19272
28.400,-19272
28.404,-19272
28.408,-19292
28.412,-19292
28.416,-19292
28.420,-19292
28.424,-19292
28.428,-19292
28.432,-19292
28.436,-19292
28.440,-19292
28.444,-19292
28.448,-19301
28.452,-19301
28.456,-19301
28.460,-19301
28.464,-19301
28.468,-19301
28.472,-19301
28.476,-19301
28.480,-19301
28.484,-19297
28.488,-19297
28.492,-19297
28.496,-19297
28.500,-19297
28.504,-19297
28.508,-19297
28.512,-19297
28.516,-19297
28.520,-19297
28.524,-19297
28.528,-19277
28.532,-19277
28.536,-19277
28.540,-19277
28.544,-19277
28.548,-19277
28.552,-19277
28.556,-19277
28.560,-19290
28.564,-19290
28.568,-19290
28.572,-19290
28.576,-19290
28.580,-19290
28.584,-19290
28.588,-19290
28.592,-19290
28.596,-19290
28.600,-19273
28.604,-19273
28.608,-19273
28.612,-19273
28.616,-19273
28.620,-19273
28.624,-19273
28.628,-19273
28.632,-19273
28.636,-19273
28.640,-19273
28.644,-19273
28.648,-19273
28.652,-19273
28.656,-19273
28.660,-19273
28.664,-19273
28.668,-19273
28.672,-19273
28.676,-19273
28.680,-19273
28.684,-19273
28.688,-19273
28.692,-19273
28.696,-19273
28.700,-19273
28.704,-19273
28.708,-19273
28.712,-19273
28.716,-19263
28.720,-19263
28.724,-19263
28.728,-19263
28.732,-19263
28.736,-19263
28.740,-19263
28.744,-19263
28.748,-19263
28.752,-19250
28.756,-19250
28.760,-19250
28.764,-19250
28.768,-19250
28.772,-19250
28.776,-19250
28.780,-19250
28.784,-19250
28.788,-19250
28.792,-19217
28.796,-19217
28.800,-19217
28.804,-19217
28.808,-19217
28.812,-19217
28.816,-19217
28.820,-19217
28.824,-19217
28.828,-19204
28.832,-19204
28.836,-19204
28.840,-19204
28.844,-19204
28.848,-19204
28.852,-19204
28.856,-19204
28.860,-19204
28.864,-19204
28.868,-19213
28.872,-19213
28.876,-19213
28.880,-19213
28.884,-19213
28.888,-19213
28.892,-19213
28.896,-19213
28.900,-19213
28.904,-19191
28.908,-19191
28.912,-19191
28.916,-19191
28.920,-19191
28.924,-19191
28.928,-19191
28.932,-19191
28.936,-19191
28.940,-19191
28.944,-19197
28.948,-19197
28.952,-19197
28.956,-19197
28.960,-19197
28.964,-19197
28.968,-19197
28.972,-19197
28.976,-19197
28.980,-19166
28.984,-19166
28.988,-19166
28.992,-19166
28.996,-19166
29.000,-19166
29.004,-19166
29.008,-19166
29.012,-19166
29.016,-19166
29.020,-19172
29.024,-19172
29.028,-19172
29.032,-19172
29.036,-19172
29.040,-19172
29.044,-19172
29.048,-19172
29.052,-19172
29.056,-19162
29.060,-19162
29.064,-19162
29.068,-19162
29.072,-19162
29.076,-19162
29.080,-19162
29.084,-19162
29.088,-19162
29.092,-19162
29.096,-19131
29.100,-19131
29.104,-19131
29.108,-19131
29.112,-19131
29.116,-19131
29.120,-19131
29.124,-19131
29.128,-19131
29.132,-19116
29.136,-19116
29.140,-19116
29.144,-19116
29.148,-19116
29.152,-19116
29.156,-19116
29.160,-19116
29.164,-19116
29.168,-19116
29.172,-19104
29.176,-19104
29.180,-19104
29.184,-19104
29.188,-19104
29.192,-19104
29.196,-19104
29.200,-19104
29.204,-19104
29.208,-19094
29.212,-19094
29.216,-19094
29.220,-19094
29.224,-19094
29.228,-19094
29.232,-19094
29.236,-19094
29.240,-19094
29.244,-19094
29.248,-19130
29.252,-19130
29.256,-19130
29.260,-19130
29.264,-19130
29.268,-19130
29.272,-19130
29.276,-19130
29.280,-19130
29.284,-19129
29.288,-19129
29.292,-19129
29.296,-19129
29.300,-19129
29.304,-19129
29.308,-19129
29.312,-19129
29.316,-19129
29.320,-19129
29.324,-19122
29.328,-19122
29.332,-19122
29.336,-19122
29.340,-19122
29.344,-19122
29.348,-19122
29.352,-19122
29.356,-19122
29.360,-19187
29.364,-19187
29.368,-19187
29.372,-19187
29.376,-19187
29.380,-19187
29.384,-19187
29.388,-19187
29.392,-19187
29.396,-19187
29.400,-19188
29.404,-19188
29.408,-19188
29.412,-19188
29.416,-19188
29.420,-19188
29.424,-19188
29.428,-19188
29.432,-19188
29.436,-19171
29.440,-19171
29.444,-19171
29.448,-19171
29.452,-19171
29.456,-19171
29.460,-19171
29.464,-19171
29.468,-19171
29.472,-19153
29.476,-19153
29.480,-19153
29.484,-19153
29.488,-19153
29.492,-19153
29.496,-19153
29.500,-19153
29.504,-19153
29.508,-19153
29.512,-19183
29.516,-19183
29.520,-19183
29.524,-19183
29.528,-19183
29.532,-19183
29.536,-19183
29.540,-19183
29.544,-19183
29.548,-19183
29.552,-19160
29.556,-19160
29.560,-19160
29.564,-19160
29.568,-19160
29.572,-19160
29.576,-19160
29.580,-19160
29.584,-19160
29.588,-19160
29.592,-19152
29.596,-19152
29.600,-19152
29.604,-19152
29.608,-19152
29.612,-19152
29.616,-19152
29.620,-19152
29.624,-19152
29.628,-19156
29.632,-19156
29.636,-19156
29.640,-19156
29.644,-19156
29.648,-19156
29.652,-19156
29.656,-19156
29.660,-19156
29.664,-19156
29.668,-19141
29.672,-19141
29.676,-19141
29.680,-19141
29.684,-19141
29.688,-19141
29.692,-19141
29.696,-19141
29.700,-19141
29.704,-19127
29.708,-19127
29.712,-19127
29.716,-19127
29.720,-19127
29.724,-19127
29.728,-19127
29.732,-19127
29.736,-19127
29.740,-19127
29.744,-19094
29.748,-19094
29.752,-19094
29.756,-19094
29.760,-19094
29.764,-19094
29.768,-19094
29.772,-19094
29.776,-19094
29.780,-19067
29.784,-19067
29.788,-19067
29.792,-19067
29.796,-19067
29.800,-19067
29.804,-19067
29.808,-19067
29.812,-19067
29.816,-19067
29.820,-19044
29.824,-19044
29.828,-19044
29.832,-19044
29.836,-19044
29.840,-19044
29.844,-19044
29.848,-19044
29.852,-19044
29.856,-19002
29.860,-19002
29.864,-19002
29.868,-19002
29.872,-19002
29.876,-19002
29.880,-19002
29.884,-19002
29.888,-19002
29.892,-19002
29.896,-18990
29.900,-18990
29.904,-18990
29.908,-18990
29.912,-18990
29.916,-18990
29.920,-18990
29.924,-18990
29.928,-18990
29.932,-19002
29.936,-19002
29.940,-19002
29.944,-19002
29.948,-19002
29.952,-19002
29.956,-19002
29.960,-19002
29.964,-19002
29.968,-19002
29.972,-18967
29.976,-18967
29.980,-18967
29.984,-18967
29.988,-18967
29.992,-18967
29.996,-18967
30.000,-18967
30.004,-18967
30.008,-18925
30.012,-18925
30.016,-18925
30.020,-18925
30.024,-18925
30.028,-18925
30.032,-18925
30.036,-18925
30.040,-18925
30.044,-18925
30.048,-18928
30.052,-18928
30.056,-18928
30.060,-18928
30.064,-18928
30.068,-18928
30.072,-18928
30.076,-18928
30.080,-18928
30.084,-18943
30.088,-18943
30.092,-18943
30.096,-18943
30.100,-18943
30.104,-18943
30.108,-18943
30.112,-18943
30.116,-18943
30.120,-18943
30.124,-18958
30.128,-18958
30.132,-18958
30.136,-18958
30.140,-18958
30.144,-18958
30.148,-18958
30.152,-18958
30.156,-18958
30.160,-18924
30.164,-18924
30.168,-18924
30.172,-18924
30.176,-18924
30.180,-18924
30.184,-18924
30.188,-18924
30.192,-18924
30.196,-18924
30.200,-18983
30.204,-18983
30.208,-18983
30.212,-18983
30.216,-18983
30.220,-18983
30.224,-18983
30.228,-18983
30.232,-18983
30.236,-18983
30.240,-18976
30.244,-18976
30.248,-18976
30.252,-18976
30.256,-18976
30.260,-18976
30.264,-18976
30.268,-18976
30.272,-18976
30.276,-19032
30.280,-19032
30.284,-19032
30.288,-19032
30.292,-19032
30.296,-19032
30.300,-19032
30.304,-19032
30.308,-19032
30.312,-19032
30.316,-19082
30.320,-19082
30.324,-19082
30.328,-19082
30.332,-19082
30.336,-19082
30.340,-19082
30.344,-19082
30.348,-19082
30.352,-19130
30.356,-19130
30.360,-19130
30.364,-19130
30.368,-19130
30.372,-19130
30.376,-19130
30.380,-19130
30.384,-19130
30.388,-19130
30.392,-19210
30.396,-19210
30.400,-19210
30.404,-19210
30.408,-19210
30.412,-19210
30.416,-19210
30.420,-19210
30.424,-19210
30.428,-19291
30.432,-19291
30.436,-19291
30.440,-19291
30.444,-19291
30.448,-19291
30.452,-19291
30.456,-19291
30.460,-19291
30.464,-19291
30.468,-19350
30.472,-19350
30.476,-19350
30.480,-19350
30.484,-19350
30.488,-19350
30.492,-19350
30.496,-19350
30.500,-19350
30.504,-19374
30.508,-19374
30.512,-19374
30.516,-19374
30.520,-19374
30.524,-19374
30.528,-19374
30.532,-19374
30.536,-19374
30.540,-19374
30.544,-19359
30.548,-19359
30.552,-19359
30.556,-19359
30.560,-19359
30.564,-19359
30.568,-19359
30.572,-19359
30.576,-19359
30.580,-19394
30.584,-19394
30.588,-19394
30.592,-19394
30.596,-19394
30.600,-19394
30.604,-19394
30.608,-19394
30.612,-19394
30.616,-19394
30.620,-19420
30.624,-19420
30.628,-19420
30.632,-19420
30.636,-19420
30.640,-19420
30.644,-19420
30.648,-19420
30.652,-19420
30.656,-19420
30.660,-19458
30.664,-19458
30.668,-19458
30.672,-19458
30.676,-19458
30.680,-19458
30.684,-19458
30.688,-19458
30.692,-19458
30.696,-19458
30.700,-19479
30.704,-19479
30.708,-19479
30.712,-19479
30.716,-19479
30.720,-19479
30.724,-19479
30.728,-19479
30.732,-19479
30.736,-19504
30.740,-19504
30.744,-19504
30.748,-19504
30.752,-19504
30.756,-19504
30.760,-19504
30.764,-19504
30.768,-19504
30.772,-19504
30.776,-19520
30.780,-19520
30.784,-19520
30.788,-19520
30.792,-19520
30.796,-19520
30.800,-19520
30.804,-19520
30.808,-19520
30.812,-19558
30.816,-19558
30.820,-19558
30.824,-19558
30.828,-19558
30.832,-19558
30.836,-19558
30.840,-19558
30.844,-19558
30.848,-19558
30.852,-19566
30.856,-19566
30.860,-19566
30.864,-19566
30.868,-19566
30.872,-19566
30.876,-19566
30.880,-19566
30.884,-19566
30.888,-19592
30.892,-19592
30.896,-19592
30.900,-19592
30.904,-19592
30.908,-19592
30.912,-19592
30.916,-19592
30.920,-19592
30.924,-19592
30.928,-19577
30.932,-19577
30.936,-19577
30.940,-19577
30.944,-19577
30.948,-19577
30.952,-19577
30.956,-19577
30.960,-19577
30.964,-19584
30.968,-19584
30.972,-19584
30.976,-19584
30.980,-19584
30.984,-19584
30.988,-19584
30.992,-19584
30.996,-19584
31.000,-19584
31.004,-19596
31.008,-19596
31.012,-19596
31.016,-19596
31.020,-19596
31.024,-19596
31.028,-19596
31.032,-19596
31.036,-19596
31.040,-19609
31.044,-19609
31.048,-19609
31.052,-19609
31.056,-19609
31.060,-19609
31.064,-19609
31.068,-19609
31.072,-19609
31.076,-19609
31.080,-19601
31.084,-19601
31.088,-19601
31.092,-19601
31.096,-19601
31.100,-19601
31.104,-19601
31.108,-19601
31.112,-19601
31.116,-19601
31.120,-19612
31.124,-19612
31.128,-19612
31.132,-19612
31.136,-19612
31.140,-19612
31.144,-19612
31.148,-19612
31.152,-19612
31.156,-19573
31.160,-19573
31.164,-19573
31.168,-19573
31.172,-19573
31.176,-19573
31.180,-19573
31.184,-19573
31.188,-19573
31.192,-19573
31.196,-19552
31.200,-19552
31.204,-19552
31.208,-19552
31.212,-19552
31.216,-19552
31.220,-19552
31.224,-19552
31.228,-19552
31.232,-19540
31.236,-19540
31.240,-19540
31.244,-19540
31.248,-19540
31.252,-19540
31.256,-19540
31.260,-19540
31.264,-19540
31.268,-19540
31.272,-19557
31.276,-19557
31.280,-19557
31.284,-19557
31.288,-19557
31.292,-19557
31.296,-19557
31.300,-19557
31.304,-19557
31.308,-19536
31.312,-19536
31.316,-19536
31.320,-19536
31.324,-19536
31.328,-19536
31.332,-19536
31.336,-19536
31.340,-19536
31.344,-19536
31.348,-19519
31.352,-19519
31.356,-19519
31.360,-19519
31.364,-19519
31.368,-19519
31.372,-19519
31.376,-19519
31.380,-19519
31.384,-19522
31.388,-19522
31.392,-19522
31.396,-19522
31.400,-19522
31.404,-19522
31.408,-19522
31.412,-19522
31.416,-19522
31.420,-19522
31.424,-19549
31.428,-19549
31.432,-19549
31.436,-19549
31.440,-19549
31.444,-19549
31.448,-19549
31.452,-19549
31.456,-19549
31.460,-19528
31.464,-19528
31.468,-19528
31.472,-19528
31.476,-19528
31.480,-19528
31.484,-19528
31.488,-19528
31.492,-19528
31.496,-19528
31.500,-19530
31.504,-19530
31.508,-19530
31.512,-19530
31.516,-19530
31.520,-19530
31.524,-19530
31.528,-19530
31.532,-19530
31.536,-19536
31.540,-19536
31.544,-19536
31.548,-19536
31.552,-19536
31.556,-19536
31.560,-19536
31.564,-19536
31.568,-19536
31.572,-19536
31.576,-19556
31.580,-19556
31.584,-19556
31.588,-19556
31.592,-19556
31.596,-19556
31.600,-19556
31.604,-19556
31.608,-19556
31.612,-19552
31.616,-19552
31.620,-19552
31.624,-19552
31.628,-19552
31.632,-19552
31.636,-19552
31.640,-19552
31.644,-19552
31.648,-19552
31.652,-19525
31.656,-19525
31.660,-19525
31.664,-19525
31.668,-19525
31.672,-19525
31.676,-19525
31.680,-19525
31.684,-19525
31.688,-19558
31.692,-19558
31.696,-19558
31.700,-19558
31.704,-19558
31.708,-19558
31.712,-19558
31.716,-19558
31.720,-19558
31.724,-19558
31.728,-19558
31.732,-19541
31.736,-19541
31.740,-19541
31.744,-19541
31.748,-19541
31.752,-19541
31.756,-19541
31.760,-19541
31.764,-19579
31.768,-19579
31.772,-19579
31.776,-19579
31.780,-19579
31.784,-19579
31.788,-19579
31.792,-19579
31.796,-19579
31.800,-19579
31.804,-19579
31.808,-19559
31.812,-19559
31.816,-19559
31.820,-19559
31.824,-19559
31.828,-19559
31.832,-19559
31.836,-19559
31.840,-19547
31.844,-19547
31.848,-19547
31.852,-19547
31.856,-19547
31.860,-19547
31.864,-19547
31.868,-19547
31.872,-19547
31.876,-19547
31.880,-19547
31.884,-19526
31.888,-19526
31.892,-19526
31.896,-19526
31.900,-19526
31.904,-19526
31.908,-19526
31.912,-19526
31.916,-19526
31.920,-19512
31.924,-19512
31.928,-19512
31.932,-19512
31.936,-19512
31.940,-19512
31.944,-19512
31.948,-19512
31.952,-19512
31.956,-19512
31.960,-19518
31.964,-19518
31.968,-19518
31.972,-19518
31.976,-19518
31.980,-19518
31.984,-19518
31.988,-19518
31.992,-19518
31.996,-19518
32.000,-19534
32.004,-19534
32.008,-19534
32.012,-19534
32.016,-19534
32.020,-19534
32.024,-19534
32.028,-19534
32.032,-19534
32.036,-19546
32.040,-19546
32.044,-19546
32.048,-19546
32.052,-19546
32.056,-19546
32.060,-19546
32.064,-19546
32.068,-19546
32.072,-19546
32.076,-19538
32.080,-19538
32.084,-19538
32.088,-19538
32.092,-19538
32.096,-19538
32.100,-19538
32.104,-19538
32.108,-19538
32.112,-19529
32.116,-19529
32.120,-19529
32.124,-19529
32.128,-19529
32.132,-19529
32.136,-19529
32.140,-19529
32.144,-19529
32.148,-19529
32.152,-19500
32.156,-19500
32.160,-19500
32.164,-19500
32.168,-19500
32.172,-19500
32.176,-19500
32.180,-19500
32.184,-19500
32.188,-19461
32.192,-19461
32.196,-19461
32.200,-19461
32.204,-19461
32.208,-19461
32.212,-19461
32.216,-19461
32.220,-19461
32.224,-19461
32.228,-19441
32.232,-19441
32.236,-19441
32.240,-19441
32.244,-19441
32.248,-19441
32.252,-19441
32.256,-19441
32.260,-19441
32.264,-19415
32.268,-19415
32.272,-19415
32.276,-19415
32.280,-19415
32.284,-19415
32.288,-19415
32.292,-19415
32.296,-19415
32.300,-19415
32.304,-19395
32.308,-19395
32.312,-19395
32.316,-19395
32.320,-19395
32.324,-19395
32.328,-19395
32.332,-19395
32.336,-19395
32.340,-19408
32.344,-19408
32.348,-19408
32.352,-19408
32.356,-19408
32.360,-19408
32.364,-19408
32.368,-19408
32.372,-19408
32.376,-19408
32.380,-19414
32.384,-19414
32.388,-19414
32.392,-19414
32.396,-19414
32.400,-19414
32.404,-19414
32.408,-19414
32.412,-19414
32.416,-19389
32.420,-19389
32.424,-19389
32.428,-19389
32.432,-19389
32.436,-19389
32.440,-19389
32.444,-19389
32.448,-19389
32.452,-19389
32.456,-19391
32.460,-19391
32.464,-19391
32.468,-19391
32.472,-19391
32.476,-19391
32.480,-19391
32.484,-19391
32.488,-19391
32.492,-19395
32.496,-19395
32.500,-19395
32.504,-19395
32.508,-19395
32.512,-19395
32.516,-19395
32.520,-19395
32.524,-19395
32.528,-19395
32.532,-19376
32.536,-19376
32.540,-19376
32.544,-19376
32.548,-19376
32.552,-19376
32.556,-19376
32.560,-19376
32.564,-19376
32.568,-19369
32.572,-19369
32.576,-19369
32.580,-19369
32.584,-19369
32.588,-19369
32.592,-19369
32.596,-19369
32.600,-19369
32.604,-19369
32.608,-19360
32.612,-19360
32.616,-19360
32.620,-19360
32.624,-19360
32.628,-19360
32.632,-19360
32.636,-19360
32.640,-19360
32.644,-19367
32.648,-19367
32.652,-19367
32.656,-19367
32.660,-19367
32.664,-19367
32.668,-19367
32.672,-19367
32.676,-19367
32.680,-19367
32.684,-19364
32.688,-19364
32.692,-19364
32.696,-19364
32.700,-19364
32.704,-19364
32.708,-19364
32.712,-19364
32.716,-19364
32.720,-19351
32.724,-19351
32.728,-19351
32.732,-19351
32.736,-19351
32.740,-19351
32.744,-19351
32.748,-19351
32.752,-19351
32.756,-19351
32.760,-19346
32.764,-19346
32.768,-19346
32.772,-19346
32.776,-19346
32.780,-19346
32.784,-19346
32.788,-19346
32.792,-19346
32.796,-19346
32.800,-19324
32.804,-19324
32.808,-19324
32.812,-19324
32.816,-19324
32.820,-19324
32.824,-19324
32.828,-19324
32.832,-19324
32.836,-19324
32.840,-19331
32.844,-19331
32.848,-19331
32.852,-19331
32.856,-19331
32.860,-19331
32.864,-19331
32.868,-19331
32.872,-19331
32.876,-19331
32.880,-19333
32.884,-19333
32.888,-19333
32.892,-19333
32.896,-19333
32.900,-19333
32.904,-19333
32.908,-19333
32.912,-19333
32.916,-19332
32.920,-19332
32.924,-19332
32.928,-19332
32.932,-19332
32.936,-19332
32.940,-19332
32.944,-19332
32.948,-19332
32.952,-19332
32.956,-19310
32.960,-19310
32.964,-19310
32.968,-19310
32.972,-19310
32.976,-19310
32.980,-19310
32.984,-19310
32.988,-19310
32.992,-19334
32.996,-19334
33.000,-19334
33.004,-19334
33.008,-19334
33.012,-19334
33.016,-19334
33.020,-19334
33.024,-19334
33.028,-19334
33.032,-19311
33.036,-19311
33.040,-19311
33.044,-19311
33.048,-19311
33.052,-19311
33.056,-19311
33.060,-19311
33.064,-19311
33.068,-19317
33.072,-19317
33.076,-19317
33.080,-19317
33.084,-19317
33.088,-19317
33.092,-19317
33.096,-19317
33.100,-19317
33.104,-19317
33.108,-19311
33.112,-19311
33.116,-19311
33.120,-19311
33.124,-19311
33.128,-19311
33.132,-19311
33.136,-19311
33.140,-19311
33.144,-19290
33.148,-19290
33.152,-19290
33.156,-19290
33.160,-19290
33.164,-19290
33.168,-19290
33.172,-19290
33.176,-19290
33.180,-19290
33.184,-19290
33.188,-19290
33.192,-19290
33.196,-19290
33.200,-19290
33.204,-19290
33.208,-19290
33.212,-19290
33.216,-19290
33.220,-19244
33.224,-19244
33.228,-19244
33.232,-19244
33.236,-19244
33.240,-19244
33.244,-19244
33.248,-19244
33.252,-19244
33.256,-19244
33.260,-19183
33.264,-19183
33.268,-19183
33.272,-19183
33.276,-19183
33.280,-19183
33.284,-19183
33.288,-19183
33.292,-19183
33.296,-19166
33.300,-19166
33.304,-19166
33.308,-19166
33.312,-19166
33.316,-19166
33.320,-19166
33.324,-19166
33.328,-19166
33.332,-19166
33.336,-19150
33.340,-19150
33.344,-19150
33.348,-19150
33.352,-19150
33.356,-19150
33.360,-19150
33.364,-19150
33.368,-19150
33.372,-19146
33.376,-19146
33.380,-19146
33.384,-19146
33.388,-19146
33.392,-19146
33.396,-19146
33.400,-19146
33.404,-19146
33.408,-19146
33.412,-19161
33.416,-19161
33.420,-19161
33.424,-19161
33.428,-19161
33.432,-19161
33.436,-19161
33.440,-19161
33.444,-19161
33.448,-19170
33.452,-19170
33.456,-19170
33.460,-19170
33.464,-19170
33.468,-19170
33.472,-19170
33.476,-19170
33.480,-19170
33.484,-19170
33.488,-19150
33.492,-19150
33.496,-19150
33.500,-19150
33.504,-19150
33.508,-19150
33.512,-19150
33.516,-19150
33.520,-19150
33.524,-19134
33.528,-19134
33.532,-19134
33.536,-19134
33.540,-19134
33.544,-19134
33.548,-19134
33.552,-19134
33.556,-19134
33.560,-19134
33.564,-19124
33.568,-19124
33.572,-19124
33.576,-19124
33.580,-19124
33.584,-19124
33.588,-19124
33.592,-19124
33.596,-19124
33.600,-19152
33.604,-19152
33.608,-19152
33.612,-19152
33.616,-19152
33.620,-19152
33.624,-19152
33.628,-19152
33.632,-19152
33.636,-19152
33.640,-19170
33.644,-19170
33.648,-19170
33.652,-19170
33.656,-19170
33.660,-19170
33.664,-19170
33.668,-19170
33.672,-19170
33.676,-19170
33.680,-19209
33.684,-19209
33.688,-19209
33.692,-19209
33.696,-19209
33.700,-19209
33.704,-19209
33.708,-19209
33.712,-19209
33.716,-19291
33.720,-19291
33.724,-19291
33.728,-19291
33.732,-19291
33.736,-19291
33.740,-19291
33.744,-19291
33.748,-19291
33.752,-19291
33.756,-19350
33.760,-19350
33.764,-19350
33.768,-19350
33.772,-19350
33.776,-19350
33.780,-19350
33.784,-19350
33.788,-19350
33.792,-19429
33.796,-19429
33.800,-19429
33.804,-19429
33.808,-19429
33.812,-19429
33.816,-19429
33.820,-19429
33.824,-19429
33.828,-19429
33.832,-19512
33.836,-19512
33.840,-19512
33.844,-19512
33.848,-19512
33.852,-19512
33.856,-19512
33.860,-19512
33.864,-19512
33.868,-19550
33.872,-19550
33.876,-19550
33.880,-19550
33.884,-19550
33.888,-19550
33.892,-19550
33.896,-19550
33.900,-19550
33.904,-19550
33.908,-19603
33.912,-19603
33.916,-19603
33.920,-19603
33.924,-19603
33.928,-19603
33.932,-19603
33.936,-19603
33.940,-19603
33.944,-19603
33.948,-19626
33.952,-19626
33.956,-19626
33.960,-19626
33.964,-19626
33.968,-19626
33.972,-19626
33.976,-19626
33.980,-19626
33.984,-19626
33.988,-19634
33.992,-19634
33.996,-19634
34.000,-19634
34.004,-19634
34.008,-19634
34.012,-19634
34.016,-19634
34.020,-19634
34.024,-19668
34.028,-19668
34.032,-19668
34.036,-19668
34.040,-19668
34.044,-19668
34.048,-19668
34.052,-19668
34.056,-19668
34.060,-19668
34.064,-19697
34.068,-19697
34.072,-19697
34.076,-19697
34.080,-19697
34.084,-19697
34.088,-19697
34.092,-19697
34.096,-19697
34.100,-19686
34.104,-19686
34.108,-19686
34.112,-19686
34.116,-19686
34.120,-19686
34.124,-19686
34.128,-19686
34.132,-19686
34.136,-19686
34.140,-19688
34.144,-19688
34.148,-19688
34.152,-19688
34.156,-19688
34.160,-19688
34.164,-19688
34.168,-19688
34.172,-19688
34.176,-19713
34.180,-19713
34.184,-19713
34.188,-19713
34.192,-19713
34.196,-19713
34.200,-19713
34.204,-19713
34.208,-19713
34.212,-19713
34.216,-19755
34.220,-19755
34.224,-19755
34.228,-19755
34.232,-19755
34.236,-19755
34.240,-19755
34.244,-19755
34.248,-19755
34.252,-19793
34.256,-19793
34.260,-19793
34.264,-19793
34.268,-19793
34.272,-19793
34.276,-19793
34.280,-19793
34.284,-19793
34.288,-19793
34.292,-19810
34.296,-19810
34.300,-19810
34.304,-19810
34.308,-19810
34.312,-19810
34.316,-19810
34.320,-19810
34.324,-19810
34.328,-19838
34.332,-19838
34.336,-19838
34.340,-19838
34.344,-19838
34.348,-19838
34.352,-19838
34.356,-19838
34.360,-19838
34.364,-19849
34.368,-19849
34.372,-19849
34.376,-19849
34.380,-19849
34.384,-19849
34.388,-19849
34.392,-19849
34.396,-19849
34.400,-19894
34.404,-19894
34.408,-19894
34.412,-19894
34.416,-19894
34.420,-19894
34.424,-19894
34.428,-19894
34.432,-19894
34.436,-19894
34.440,-19854
34.444,-19854
34.448,-19854
34.452,-19854
34.456,-19854
34.460,-19854
34.464,-19854
34.468,-19854
34.472,-19854
34.476,-19854
34.480,-19849
34.484,-19849
34.488,-19849
34.492,-19849
34.496,-19849
34.500,-19849
34.504,-19849
34.508,-19849
34.512,-19818
34.516,-19818
34.520,-19818
34.524,-19818
34.528,-19818
34.532,-19818
34.536,-19818
34.540,-19818
34.544,-19818
34.548,-19818
34.552,-19834
34.556,-19834
34.560,-19834
34.564,-19834
34.568,-19834
34.572,-19834
34.576,-19834
34.580,-19834
34.584,-19834
34.588,-19833
34.592,-19833
34.596,-19833
34.600,-19833
34.604,-19833
34.608,-19833
34.612,-19833
34.616,-19833
34.620,-19833
34.624,-19833
34.628,-19844
34.632,-19844
34.636,-19844
34.640,-19844
34.644,-19844
34.648,-19844
34.652,-19844
34.656,-19844
34.660,-19844
34.664,-19831
34.668,-19831
34.672,-19831
34.676,-19831
34.680,-19831
34.684,-19831
34.688,-19831
34.692,-19831
34.696,-19831
34.700,-19831
34.704,-19838
34.708,-19838
34.712,-19838
34.716,-19838
34.720,-19838
34.724,-19838
34.728,-19838
34.732,-19838
34.736,-19838
34.740,-19811
34.744,-19811
34.748,-19811
34.752,-19811
34.756,-19811
34.760,-19811
34.764,-19811
34.768,-19811
34.772,-19811
34.776,-19811
34.780,-19798
34.784,-19798
34.788,-19798
34.792,-19798
34.796,-19798
34.800,-19798
34.804,-19798
34.808,-19798
34.812,-19798
34.816,-19778
34.820,-19778
34.824,-19778
34.828,-19778
34.832,-19778
34.836,-19778
34.840,-19778
34.844,-19778
34.848,-19778
34.852,-19778
34.856,-19788
34.860,-19788
34.864,-19788
34.868,-19788
34.872,-19788
34.876,-19788
34.880,-19788
34.884,-19788
34.888,-19788
34.892,-19782
34.896,-19782
34.900,-19782
34.904,-19782
34.908,-19782
34.912,-19782
34.916,-19782
34.920,-19782
34.924,-19782
34.928,-19782
34.932,-19800
34.936,-19800
34.940,-19800
34.944,-19800
34.948,-19800
34.952,-19800
34.956,-19800
34.960,-19800
34.964,-19800
34.968,-19806
34.972,-19806
34.976,-19806
34.980,-19806
34.984,-19806
34.988,-19806
